20:39:51.560	1.84	1.880
20:39:51.593	3.13	1.953
20:39:51.627	3.14	1.970
20:39:51.660	3.13	1.975
20:39:51.693	3.13	1.969
20:39:51.727	3.14	1.978
20:39:51.760	3.13	2.027
20:39:51.793	3.13	2.315
20:39:51.827	3.14	2.489
20:39:51.860	3.14	2.466
20:39:51.893	3.13	2.313
20:39:51.927	3.13	2.187
20:39:51.960	3.14	2.115
20:39:51.993	3.14	2.057
20:39:52.027	3.13	2.013
20:39:52.060	3.14	1.985
20:39:52.093	3.13	1.977
20:39:52.127	3.14	1.983
20:39:52.160	3.14	1.969
20:39:52.193	3.13	1.947
20:39:52.227	3.14	1.943
20:39:52.260	3.14	1.945
20:39:52.293	3.13	1.946
20:39:52.327	3.13	1.953
20:39:52.360	3.13	1.963
20:39:52.393	3.13	1.992
20:39:52.427	3.13	2.291
20:39:52.460	3.13	2.466
20:39:52.493	3.13	2.420
20:39:52.527	3.14	2.289
20:39:52.560	3.14	2.184
20:39:52.593	3.14	2.118
20:39:52.627	3.13	2.066
20:39:52.660	3.13	2.010
20:39:52.693	3.13	1.968
20:39:52.727	3.13	1.951
20:39:52.760	3.13	1.964
20:39:52.793	3.13	1.954
20:39:52.827	3.13	1.939
20:39:52.860	3.13	1.932
20:39:52.893	3.13	1.922
20:39:52.927	3.13	1.926
20:39:52.960	3.13	1.948
20:39:52.993	3.13	1.963
20:39:53.027	3.13	1.971
20:39:53.060	3.14	2.078
20:39:53.093	3.14	2.400
20:39:53.127	3.13	2.532
20:39:53.160	3.13	2.463
20:39:53.193	3.13	2.313
20:39:53.227	3.13	2.186
20:39:53.260	3.13	2.119
20:39:53.293	3.13	2.068
20:39:53.327	3.13	2.005
20:39:53.360	3.13	1.962
20:39:53.393	3.14	1.949
20:39:53.427	3.13	1.943
20:39:53.460	3.13	1.938
20:39:53.493	3.13	1.913
20:39:53.527	3.13	1.904
20:39:53.560	3.14	1.918
20:39:53.593	3.14	1.933
20:39:53.627	3.13	1.936
20:39:53.660	3.13	1.947
20:39:53.693	3.14	1.958
20:39:53.727	3.14	1.988
20:39:53.760	3.13	2.260
20:39:53.793	3.13	2.508
20:39:53.827	3.14	2.515
20:39:53.860	3.13	2.373
20:39:53.893	3.14	2.225
20:39:53.927	3.14	2.119
20:39:53.960	3.14	2.060
20:39:53.993	3.14	2.046
20:39:54.027	3.14	1.989
20:39:54.060	3.14	1.970
20:39:54.093	3.14	1.973
20:39:54.127	3.14	1.967
20:39:54.160	3.13	1.953
20:39:54.193	3.13	1.946
20:39:54.227	3.13	1.939
20:39:54.260	3.14	1.936
20:39:54.293	3.14	1.948
20:39:54.327	3.13	1.973
20:39:54.360	3.13	2.205
20:39:54.393	3.13	2.434
20:39:54.427	3.13	2.456
20:39:54.460	3.13	2.335
20:39:54.493	3.14	2.220
20:39:54.527	3.14	2.193
20:39:54.560	3.13	2.096
20:39:54.593	3.13	2.023
20:39:54.627	3.14	1.969
20:39:54.660	3.13	1.955
20:39:54.693	3.13	1.962
20:39:54.727	3.14	1.950
20:39:54.760	3.13	1.924
20:39:54.793	3.13	1.926
20:39:54.827	3.14	1.929
20:39:54.860	3.13	1.936
20:39:54.893	3.14	1.950
20:39:54.927	3.14	1.972
20:39:54.960	3.14	2.078
20:39:54.993	3.13	2.369
20:39:55.027	3.14	2.515
20:39:55.060	3.13	2.492
20:39:55.093	3.14	2.330
20:39:55.127	3.14	2.203
20:39:55.160	3.13	2.114
20:39:55.193	3.14	2.042
20:39:55.227	3.14	1.966
20:39:55.260	3.14	1.917
20:39:55.293	3.14	1.906
20:39:55.327	3.14	1.912
20:39:55.360	3.14	1.906
20:39:55.393	3.14	1.878
20:39:55.427	3.14	1.874
20:39:55.460	3.14	1.879
20:39:55.493	3.14	1.911
20:39:55.527	3.14	1.954
20:39:55.560	3.14	1.983
20:39:55.593	3.14	1.989
20:39:55.627	3.14	2.139
20:39:55.660	3.14	2.440
20:39:55.693	3.14	2.563
20:39:55.727	3.14	2.493
20:39:55.760	3.14	2.353
20:39:55.793	3.14	2.242
20:39:55.827	3.14	2.176
20:39:55.860	3.14	2.111
20:39:55.893	3.14	2.023
20:39:55.927	3.14	1.963
20:39:55.960	3.14	1.934
20:39:55.993	3.14	1.913
20:39:56.027	3.14	1.894
20:39:56.060	3.14	1.869
20:39:56.093	3.14	1.841
20:39:56.127	3.14	1.837
20:39:56.160	3.14	1.836
20:39:56.193	3.15	1.851
20:39:56.227	3.15	1.873
20:39:56.260	3.14	1.898
20:39:56.293	3.14	1.971
20:39:56.327	3.15	2.338
20:39:56.360	3.14	2.575
20:39:56.393	3.14	2.553
20:39:56.427	3.15	2.410
20:39:56.460	3.14	2.261
20:39:56.493	3.14	2.151
20:39:56.527	3.15	2.063
20:39:56.560	3.15	1.979
20:39:56.593	3.15	1.922
20:39:56.627	3.15	1.910
20:39:56.660	3.14	1.914
20:39:56.693	3.14	1.902
20:39:56.727	3.14	1.866
20:39:56.760	3.15	1.828
20:39:56.793	3.14	1.799
20:39:56.827	3.14	1.809
20:39:56.860	3.14	1.843
20:39:56.893	3.14	1.958
20:39:56.927	3.14	2.382
20:39:56.960	3.14	2.603
20:39:56.993	3.14	2.543
20:39:57.027	3.14	2.375
20:39:57.060	3.14	2.213
20:39:57.093	3.14	2.096
20:39:57.127	3.14	2.005
20:39:57.160	3.14	1.959
20:39:57.193	3.14	1.957
20:39:57.227	3.14	1.956
20:39:57.260	3.14	1.953
20:39:57.293	3.14	1.922
20:39:57.327	3.14	1.903
20:39:57.360	3.14	1.905
20:39:57.393	3.14	1.902
20:39:57.427	3.14	1.905
20:39:57.460	3.14	1.948
20:39:57.493	3.14	2.303
20:39:57.527	3.14	2.581
20:39:57.560	3.14	2.592
20:39:57.593	3.14	2.449
20:39:57.627	3.14	2.283
20:39:57.660	3.14	2.168
20:39:57.693	3.14	2.092
20:39:57.727	3.14	2.059
20:39:57.760	3.14	1.958
20:39:57.793	3.14	1.910
20:39:57.827	3.15	1.888
20:39:57.860	3.14	1.883
20:39:57.893	3.15	1.867
20:39:57.927	3.15	1.853
20:39:57.960	3.14	1.862
20:39:57.993	3.15	1.886
20:39:58.027	3.15	1.897
20:39:58.060	3.15	1.928
20:39:58.093	3.14	2.211
20:39:58.127	3.14	2.541
20:39:58.160	3.14	2.614
20:39:58.193	3.14	2.501
20:39:58.227	3.14	2.333
20:39:58.260	3.14	2.292
20:39:58.293	3.15	2.154
20:39:58.327	3.14	2.047
20:39:58.360	3.15	1.956
20:39:58.393	3.14	1.909
20:39:58.427	3.14	1.893
20:39:58.460	3.15	1.883
20:39:58.493	3.15	1.861
20:39:58.527	3.15	1.843
20:39:58.560	3.15	1.840
20:39:58.593	3.15	1.855
20:39:58.627	3.15	1.873
20:39:58.660	3.15	1.897
20:39:58.693	3.15	1.920
20:39:58.727	3.15	1.937
20:39:58.760	3.15	2.166
20:39:58.793	3.15	2.291
20:39:58.827	3.15	2.495
20:39:58.860	3.15	2.434
20:39:58.893	3.15	2.296
20:39:58.927	3.15	2.171
20:39:58.960	3.15	2.094
20:39:58.993	3.15	2.027
20:39:59.027	3.15	1.960
20:39:59.060	3.15	1.933
20:39:59.093	3.15	1.942
20:39:59.127	3.15	1.945
20:39:59.160	3.15	1.926
20:39:59.193	3.15	1.913
20:39:59.227	3.15	1.903
20:39:59.260	3.15	1.907
20:39:59.293	3.15	1.914
20:39:59.327	3.15	1.918
20:39:59.360	3.15	2.124
20:39:59.393	3.15	2.415
20:39:59.427	3.15	2.502
20:39:59.460	3.15	2.402
20:39:59.493	3.16	2.256
20:39:59.527	3.15	2.142
20:39:59.560	3.16	2.064
20:39:59.593	3.15	2.008
20:39:59.627	3.16	1.968
20:39:59.660	3.15	1.956
20:39:59.693	3.15	1.968
20:39:59.727	3.15	1.956
20:39:59.760	3.15	1.926
20:39:59.793	3.15	1.904
20:39:59.827	3.15	1.894
20:39:59.860	3.15	1.894
20:39:59.893	3.15	1.907
20:39:59.927	3.15	1.918
20:39:59.960	3.16	1.980
20:39:59.993	3.16	2.347
20:40:0.027	3.15	2.590
20:40:0.060	3.15	2.581
20:40:0.093	3.16	2.445
20:40:0.127	3.15	2.319
20:40:0.160	3.15	2.282
20:40:0.193	3.15	2.293
20:40:0.227	3.15	2.297
20:40:0.260	3.15	2.455
20:40:0.293	3.16	3.169
20:40:0.327	3.16	3.269
20:40:0.360	3.15	2.610
20:40:0.393	3.15	2.186
20:40:0.427	3.16	1.042
20:40:0.460	3.15	0.583
20:40:0.493	3.16	0.690
20:40:0.527	3.16	1.029
20:40:0.560	3.15	1.394
20:40:0.593	3.15	1.706
20:40:0.627	3.15	1.919
20:40:0.660	3.15	2.108
20:40:0.693	3.16	2.559
20:40:0.727	3.15	2.849
20:40:0.760	3.16	2.830
20:40:0.793	3.16	2.658
20:40:0.827	3.16	2.488
20:40:0.860	3.15	2.347
20:40:0.893	3.15	2.236
20:40:0.927	3.16	2.199
20:40:0.960	3.16	2.051
20:40:0.993	3.15	1.969
20:40:1.027	3.16	1.933
20:40:1.060	3.16	1.899
20:40:1.093	3.16	1.874
20:40:1.127	3.15	1.862
20:40:1.160	3.15	1.857
20:40:1.193	3.16	1.865
20:40:1.227	3.15	1.894
20:40:1.260	3.16	1.911
20:40:1.293	3.16	1.926
20:40:1.327	3.16	2.041
20:40:1.360	3.16	2.437
20:40:1.393	3.16	2.677
20:40:1.427	3.16	2.743
20:40:1.460	3.15	2.789
20:40:1.493	3.15	3.362
20:40:1.527	3.16	3.502
20:40:1.560	3.15	2.686
20:40:1.593	3.16	1.258
20:40:1.627	3.16	0.610
20:40:1.660	3.16	0.589
20:40:1.693	3.16	0.854
20:40:1.727	3.16	1.198
20:40:1.760	3.16	1.512
20:40:1.793	3.16	1.765
20:40:1.827	3.16	1.948
20:40:1.860	3.16	2.056
20:40:1.893	3.16	2.124
20:40:1.927	3.15	2.180
20:40:1.960	3.16	2.418
20:40:1.993	3.16	2.509
20:40:2.027	3.16	2.656
20:40:2.060	3.16	2.552
20:40:2.093	3.16	2.378
20:40:2.127	3.16	2.252
20:40:2.160	3.16	2.159
20:40:2.193	3.16	2.065
20:40:2.227	3.16	1.997
20:40:2.260	3.16	1.963
20:40:2.293	3.16	1.948
20:40:2.327	3.16	1.933
20:40:2.360	3.16	1.908
20:40:2.393	3.16	1.880
20:40:2.427	3.16	1.865
20:40:2.460	3.16	1.872
20:40:2.493	3.16	1.891
20:40:2.527	3.16	1.899
20:40:2.560	3.16	1.931
20:40:2.593	3.16	1.948
20:40:2.627	3.16	2.076
20:40:2.660	3.16	2.496
20:40:2.693	3.16	2.705
20:40:2.727	3.16	2.628
20:40:2.760	3.16	2.445
20:40:2.793	3.17	2.271
20:40:2.827	3.16	2.161
20:40:2.860	3.16	2.079
20:40:2.893	3.16	1.987
20:40:2.927	3.17	1.927
20:40:2.960	3.17	1.913
20:40:2.993	3.16	1.922
20:40:3.027	3.16	1.922
20:40:3.060	3.17	1.924
20:40:3.093	3.16	1.931
20:40:3.127	3.17	1.926
20:40:3.160	3.17	1.920
20:40:3.193	3.17	1.920
20:40:3.227	3.17	1.925
20:40:3.260	3.17	1.939
20:40:3.293	3.17	1.970
20:40:3.327	3.17	2.257
20:40:3.360	3.17	2.558
20:40:3.393	3.17	2.626
20:40:3.427	3.17	2.514
20:40:3.460	3.17	2.367
20:40:3.493	3.17	2.252
20:40:3.527	3.17	2.169
20:40:3.560	3.18	2.085
20:40:3.593	3.18	2.056
20:40:3.627	3.18	1.955
20:40:3.660	3.18	1.902
20:40:3.693	3.19	1.856
20:40:3.727	3.19	1.803
20:40:3.760	3.19	1.769
20:40:3.793	3.19	1.759
20:40:3.827	3.19	1.758
20:40:3.860	3.19	1.770
20:40:3.893	3.19	1.793
20:40:3.927	3.19	1.823
20:40:3.960	3.19	1.852
20:40:3.993	3.19	2.060
20:40:4.027	3.19	2.497
20:40:4.060	3.19	2.675
20:40:4.093	3.19	2.601
20:40:4.127	3.19	2.534
20:40:4.160	3.19	2.283
20:40:4.193	3.19	2.146
20:40:4.227	3.19	2.041
20:40:4.260	3.19	1.955
20:40:4.293	3.19	1.923
20:40:4.327	3.19	1.922
20:40:4.360	3.19	1.911
20:40:4.393	3.19	1.885
20:40:4.427	3.19	1.860
20:40:4.460	3.19	1.842
20:40:4.493	3.19	1.852
20:40:4.527	3.19	1.868
20:40:4.560	3.19	1.885
20:40:4.593	3.19	2.029
20:40:4.627	3.19	2.386
20:40:4.660	3.19	2.446
20:40:4.693	3.19	2.484
20:40:4.727	3.19	2.353
20:40:4.760	3.19	2.200
20:40:4.793	3.19	2.091
20:40:4.827	3.19	1.994
20:40:4.860	3.19	1.940
20:40:4.893	3.19	1.931
20:40:4.927	3.19	1.931
20:40:4.960	3.19	1.914
20:40:4.993	3.19	1.892
20:40:5.027	3.19	1.875
20:40:5.060	3.19	1.857
20:40:5.093	3.19	1.860
20:40:5.127	3.19	1.872
20:40:5.160	3.19	1.892
20:40:5.193	3.19	1.994
20:40:5.227	3.19	2.482
20:40:5.260	3.19	2.666
20:40:5.293	3.19	2.587
20:40:5.327	3.20	2.413
20:40:5.360	3.19	2.252
20:40:5.393	3.20	2.145
20:40:5.427	3.20	2.060
20:40:5.460	3.20	1.967
20:40:5.493	3.20	1.918
20:40:5.527	3.20	1.906
20:40:5.560	3.20	1.887
20:40:5.593	3.20	1.854
20:40:5.627	3.20	1.828
20:40:5.660	3.20	1.805
20:40:5.693	3.20	1.814
20:40:5.727	3.20	1.824
20:40:5.760	3.20	1.854
20:40:5.793	3.20	1.903
20:40:5.827	3.20	2.252
20:40:5.860	3.20	2.589
20:40:5.893	3.21	2.667
20:40:5.927	3.20	2.555
20:40:5.960	3.21	2.385
20:40:5.993	3.20	2.252
20:40:6.027	3.21	2.156
20:40:6.060	3.21	2.054
20:40:6.093	3.21	1.950
20:40:6.127	3.21	1.892
20:40:6.160	3.21	1.868
20:40:6.193	3.21	1.849
20:40:6.227	3.21	1.827
20:40:6.260	3.21	1.818
20:40:6.293	3.21	1.790
20:40:6.327	3.21	1.796
20:40:6.360	3.21	1.816
20:40:6.393	3.21	1.840
20:40:6.427	3.21	1.870
20:40:6.460	3.21	1.905
20:40:6.493	3.21	2.184
20:40:6.527	3.21	2.568
20:40:6.560	3.22	2.689
20:40:6.593	3.21	2.573
20:40:6.627	3.21	2.384
20:40:6.660	3.21	2.237
20:40:6.693	3.21	2.131
20:40:6.727	3.21	2.040
20:40:6.760	3.21	1.967
20:40:6.793	3.22	1.955
20:40:6.827	3.21	1.937
20:40:6.860	3.21	1.919
20:40:6.893	3.21	1.882
20:40:6.927	3.21	1.854
20:40:6.960	3.21	1.849
20:40:6.993	3.21	1.849
20:40:7.027	3.22	1.858
20:40:7.060	3.22	1.885
20:40:7.093	3.21	2.119
20:40:7.127	3.21	2.467
20:40:7.160	3.21	2.616
20:40:7.193	3.22	2.545
20:40:7.227	3.21	2.381
20:40:7.260	3.21	2.236
20:40:7.293	3.21	2.130
20:40:7.327	3.21	2.093
20:40:7.360	3.21	1.982
20:40:7.393	3.22	1.934
20:40:7.427	3.21	1.919
20:40:7.460	3.22	1.901
20:40:7.493	3.21	1.863
20:40:7.527	3.22	1.829
20:40:7.560	3.22	1.819
20:40:7.593	3.21	1.831
20:40:7.627	3.22	1.838
20:40:7.660	3.22	1.861
20:40:7.693	3.21	2.008
20:40:7.727	3.21	2.420
20:40:7.760	3.22	2.662
20:40:7.793	3.21	2.652
20:40:7.827	3.21	2.501
20:40:7.860	3.21	2.456
20:40:7.893	3.22	2.295
20:40:7.927	3.21	2.167
20:40:7.960	3.21	2.037
20:40:7.993	3.21	1.931
20:40:8.027	3.21	1.872
20:40:8.060	3.21	1.853
20:40:8.093	3.21	1.831
20:40:8.127	3.21	1.796
20:40:8.160	3.21	1.782
20:40:8.193	3.21	1.781
20:40:8.227	3.21	1.786
20:40:8.260	3.21	1.815
20:40:8.293	3.21	1.846
20:40:8.327	3.21	1.875
20:40:8.360	3.21	1.917
20:40:8.393	3.21	2.038
20:40:8.427	3.22	2.546
20:40:8.460	3.21	2.710
20:40:8.493	3.21	2.617
20:40:8.527	3.21	2.438
20:40:8.560	3.21	2.283
20:40:8.593	3.21	2.179
20:40:8.627	3.21	2.076
20:40:8.660	3.21	1.966
20:40:8.693	3.21	1.904
20:40:8.727	3.21	1.873
20:40:8.760	3.21	1.853
20:40:8.793	3.21	1.830
20:40:8.827	3.22	1.797
20:40:8.860	3.21	1.768
20:40:8.893	3.21	1.779
20:40:8.927	3.22	1.783
20:40:8.960	3.22	1.804
20:40:8.993	3.21	1.835
20:40:9.027	3.21	2.070
20:40:9.060	3.21	2.467
20:40:9.093	3.21	2.637
20:40:9.127	3.21	2.575
20:40:9.160	3.21	2.411
20:40:9.193	3.21	2.268
20:40:9.227	3.21	2.166
20:40:9.260	3.21	2.051
20:40:9.293	3.21	1.971
20:40:9.327	3.21	1.935
20:40:9.360	3.21	1.918
20:40:9.393	3.21	1.902
20:40:9.427	3.21	1.876
20:40:9.460	3.21	1.864
20:40:9.493	3.21	1.831
20:40:9.527	3.21	1.827
20:40:9.560	3.21	1.828
20:40:9.593	3.21	1.848
20:40:9.627	3.20	1.918
20:40:9.660	3.21	2.295
20:40:9.693	3.21	2.606
20:40:9.727	3.21	2.672
20:40:9.760	3.21	2.539
20:40:9.793	3.20	2.364
20:40:9.827	3.21	2.222
20:40:9.860	3.21	2.119
20:40:9.893	3.20	2.012
20:40:9.927	3.21	1.938
20:40:9.960	3.21	1.905
20:40:9.993	3.21	1.899
20:40:10.027	3.21	1.870
20:40:10.060	3.21	1.838
20:40:10.093	3.20	1.817
20:40:10.127	3.21	1.815
20:40:10.160	3.21	1.823
20:40:10.193	3.21	1.842
20:40:10.227	3.20	1.873
20:40:10.260	3.21	2.127
20:40:10.293	3.21	2.521
20:40:10.327	3.21	2.706
20:40:10.360	3.21	2.645
20:40:10.393	3.21	2.481
20:40:10.427	3.21	2.332
20:40:10.460	3.21	2.210
20:40:10.493	3.20	2.096
20:40:10.527	3.20	2.060
20:40:10.560	3.21	1.938
20:40:10.593	3.21	1.880
20:40:10.627	3.21	1.847
20:40:10.660	3.21	1.808
20:40:10.693	3.21	1.772
20:40:10.727	3.21	1.767
20:40:10.760	3.20	1.769
20:40:10.793	3.21	1.780
20:40:10.827	3.20	1.797
20:40:10.860	3.21	1.821
20:40:10.893	3.20	1.996
20:40:10.927	3.21	2.462
20:40:10.960	3.21	2.725
20:40:10.993	3.21	2.710
20:40:11.027	3.21	2.563
20:40:11.060	3.20	2.513
20:40:11.093	3.20	2.329
20:40:11.127	3.21	2.182
20:40:11.160	3.21	2.034
20:40:11.193	3.21	1.917
20:40:11.227	3.21	1.857
20:40:11.260	3.21	1.825
20:40:11.293	3.20	1.793
20:40:11.327	3.21	1.756
20:40:11.360	3.21	1.743
20:40:11.393	3.21	1.742
20:40:11.427	3.21	1.760
20:40:11.460	3.21	1.788
20:40:11.493	3.21	1.815
20:40:11.527	3.21	1.851
20:40:11.560	3.21	1.892
20:40:11.593	3.21	1.957
20:40:11.627	3.21	2.492
20:40:11.660	3.21	2.794
20:40:11.693	3.21	2.767
20:40:11.727	3.20	2.574
20:40:11.760	3.21	2.396
20:40:11.793	3.21	2.261
20:40:11.827	3.21	2.144
20:40:11.860	3.21	2.023
20:40:11.893	3.21	1.936
20:40:11.927	3.21	1.896
20:40:11.960	3.21	1.882
20:40:11.993	3.21	1.859
20:40:12.027	3.21	1.824
20:40:12.060	3.21	1.802
20:40:12.093	3.21	1.795
20:40:12.127	3.21	1.795
20:40:12.160	3.21	1.817
20:40:12.193	3.21	1.849
20:40:12.227	3.21	2.077
20:40:12.260	3.21	2.439
20:40:12.293	3.21	2.599
20:40:12.327	3.20	2.542
20:40:12.360	3.21	2.391
20:40:12.393	3.20	2.249
20:40:12.427	3.20	2.136
20:40:12.460	3.20	2.038
20:40:12.493	3.21	1.964
20:40:12.527	3.21	1.935
20:40:12.560	3.21	1.927
20:40:12.593	3.21	1.918
20:40:12.627	3.21	1.886
20:40:12.660	3.21	1.874
20:40:12.693	3.21	1.849
20:40:12.727	3.21	1.841
20:40:12.760	3.21	1.849
20:40:12.793	3.21	1.871
20:40:12.827	3.21	1.941
20:40:12.860	3.21	2.308
20:40:12.893	3.21	2.578
20:40:12.927	3.21	2.588
20:40:12.960	3.21	2.448
20:40:12.993	3.21	2.295
20:40:13.027	3.21	2.180
20:40:13.060	3.21	2.098
20:40:13.093	3.21	2.012
20:40:13.127	3.21	1.944
20:40:13.160	3.21	1.908
20:40:13.193	3.21	1.905
20:40:13.227	3.21	1.891
20:40:13.260	3.21	1.863
20:40:13.293	3.21	1.841
20:40:13.327	3.22	1.843
20:40:13.360	3.21	1.857
20:40:13.393	3.21	1.870
20:40:13.427	3.21	1.883
20:40:13.460	3.21	1.937
20:40:13.493	3.21	2.310
20:40:13.527	3.22	2.614
20:40:13.560	3.21	2.642
20:40:13.593	3.21	2.507
20:40:13.627	3.22	2.348
20:40:13.660	3.21	2.218
20:40:13.693	3.21	2.131
20:40:13.727	3.21	2.103
20:40:13.760	3.21	1.988
20:40:13.793	3.22	1.927
20:40:13.827	3.22	1.904
20:40:13.860	3.21	1.884
20:40:13.893	3.21	1.854
20:40:13.927	3.21	1.834
20:40:13.960	3.22	1.830
20:40:13.993	3.21	1.836
20:40:14.027	3.22	1.857
20:40:14.060	3.21	1.878
20:40:14.093	3.21	1.895
20:40:14.127	3.21	1.914
20:40:14.160	3.22	2.030
20:40:14.193	3.21	2.471
20:40:14.227	3.22	2.716
20:40:14.260	3.22	2.700
20:40:14.293	3.21	2.513
20:40:14.327	3.21	2.330
20:40:14.360	3.22	2.213
20:40:14.393	3.22	2.114
20:40:14.427	3.21	2.009
20:40:14.460	3.21	1.935
20:40:14.493	3.21	1.893
20:40:14.527	3.22	1.886
20:40:14.560	3.21	1.870
20:40:14.593	3.21	1.839
20:40:14.627	3.21	1.824
20:40:14.660	3.21	1.829
20:40:14.693	3.21	1.837
20:40:14.727	3.22	1.854
20:40:14.760	3.21	1.881
20:40:14.793	3.21	1.897
20:40:14.827	3.21	2.232
20:40:14.860	3.22	2.550
20:40:14.893	3.21	2.609
20:40:14.927	3.22	2.483
20:40:14.960	3.22	2.316
20:40:14.993	3.21	2.184
20:40:15.027	3.21	2.088
20:40:15.060	3.22	2.009
20:40:15.093	3.22	1.950
20:40:15.127	3.22	1.931
20:40:15.160	3.22	1.932
20:40:15.193	3.21	1.909
20:40:15.227	3.21	1.883
20:40:15.260	3.22	1.860
20:40:15.293	3.22	1.849
20:40:15.327	3.22	1.850
20:40:15.360	3.21	1.863
20:40:15.393	3.22	1.881
20:40:15.427	3.21	1.951
20:40:15.460	3.22	2.315
20:40:15.493	3.22	2.589
20:40:15.527	3.21	2.605
20:40:15.560	3.22	2.475
20:40:15.593	3.21	2.318
20:40:15.627	3.22	2.201
20:40:15.660	3.22	2.111
20:40:15.693	3.22	2.025
20:40:15.727	3.22	1.947
20:40:15.760	3.21	1.921
20:40:15.793	3.21	1.914
20:40:15.827	3.22	1.892
20:40:15.860	3.22	1.880
20:40:15.893	3.22	1.848
20:40:15.927	3.22	1.833
20:40:15.960	3.21	1.837
20:40:15.993	3.22	1.852
20:40:16.027	3.21	1.870
20:40:16.060	3.21	2.129
20:40:16.093	3.22	2.516
20:40:16.127	3.21	2.671
20:40:16.160	3.21	2.597
20:40:16.193	3.22	2.437
20:40:16.227	3.21	2.296
20:40:16.260	3.22	2.189
20:40:16.293	3.22	2.088
20:40:16.327	3.22	1.984
20:40:16.360	3.22	1.919
20:40:16.393	3.22	1.916
20:40:16.427	3.22	1.890
20:40:16.460	3.21	1.843
20:40:16.493	3.22	1.810
20:40:16.527	3.22	1.791
20:40:16.560	3.22	1.798
20:40:16.593	3.21	1.820
20:40:16.627	3.21	1.845
20:40:16.660	3.22	1.867
20:40:16.693	3.22	2.111
20:40:16.727	3.22	2.498
20:40:16.760	3.22	2.672
20:40:16.793	3.22	2.613
20:40:16.827	3.22	2.471
20:40:16.860	3.22	2.338
20:40:16.893	3.22	2.234
20:40:16.927	3.22	2.199
20:40:16.960	3.22	2.044
20:40:16.993	3.22	1.938
20:40:17.027	3.21	1.892
20:40:17.060	3.22	1.854
20:40:17.093	3.22	1.809
20:40:17.127	3.21	1.773
20:40:17.160	3.22	1.752
20:40:17.193	3.22	1.757
20:40:17.227	3.22	1.778
20:40:17.260	3.22	1.804
20:40:17.293	3.22	1.831
20:40:17.327	3.22	1.863
20:40:17.360	3.22	1.900
20:40:17.393	3.22	2.256
20:40:17.427	3.22	2.658
20:40:17.460	3.22	2.698
20:40:17.493	3.22	2.645
20:40:17.527	3.22	2.480
20:40:17.560	3.22	2.323
20:40:17.593	3.22	2.211
20:40:17.627	3.22	2.102
20:40:17.660	3.22	1.992
20:40:17.693	3.22	1.901
20:40:17.727	3.22	1.861
20:40:17.760	3.22	1.830
20:40:17.793	3.22	1.791
20:40:17.827	3.22	1.767
20:40:17.860	3.22	1.754
20:40:17.893	3.22	1.759
20:40:17.927	3.22	1.781
20:40:17.960	3.22	1.814
20:40:17.993	3.22	1.822
20:40:18.027	3.22	1.855
20:40:18.060	3.22	1.918
20:40:18.093	3.22	2.304
20:40:18.127	3.22	2.719
20:40:18.160	3.22	2.830
20:40:18.193	3.22	2.698
20:40:18.227	3.22	2.505
20:40:18.260	3.22	2.341
20:40:18.293	3.22	2.206
20:40:18.327	3.22	2.072
20:40:18.360	3.22	1.954
20:40:18.393	3.22	1.880
20:40:18.427	3.22	1.851
20:40:18.460	3.22	1.824
20:40:18.493	3.22	1.785
20:40:18.527	3.22	1.774
20:40:18.560	3.22	1.745
20:40:18.593	3.22	1.739
20:40:18.627	3.22	1.758
20:40:18.660	3.22	1.795
20:40:18.693	3.22	1.835
20:40:18.727	3.22	1.867
20:40:18.760	3.22	1.899
20:40:18.793	3.22	1.979
20:40:18.827	3.22	2.463
20:40:18.860	3.22	2.817
20:40:18.893	3.22	2.855
20:40:18.927	3.22	2.683
20:40:18.960	3.22	2.453
20:40:18.993	3.22	2.272
20:40:19.027	3.22	2.141
20:40:19.060	3.22	2.098
20:40:19.093	3.22	1.942
20:40:19.127	3.22	1.864
20:40:19.160	3.22	1.840
20:40:19.193	3.22	1.813
20:40:19.227	3.22	1.773
20:40:19.260	3.22	1.745
20:40:19.293	3.22	1.740
20:40:19.327	3.22	1.759
20:40:19.360	3.22	1.790
20:40:19.393	3.22	1.833
20:40:19.427	3.22	1.873
20:40:19.460	3.22	1.902
20:40:19.493	3.22	1.940
20:40:19.527	3.22	2.104
20:40:19.560	3.22	2.589
20:40:19.593	3.22	2.665
20:40:19.627	3.22	2.694
20:40:19.660	3.22	2.518
20:40:19.693	3.22	2.316
20:40:19.727	3.22	2.158
20:40:19.760	3.22	2.021
20:40:19.793	3.22	1.928
20:40:19.827	3.22	1.886
20:40:19.860	3.22	1.878
20:40:19.893	3.22	1.874
20:40:19.927	3.22	1.849
20:40:19.960	3.22	1.813
20:40:19.993	3.22	1.792
20:40:20.027	3.22	1.794
20:40:20.060	3.22	1.806
20:40:20.093	3.22	1.833
20:40:20.127	3.22	1.847
20:40:20.160	3.22	2.050
20:40:20.193	3.22	2.528
20:40:20.227	3.22	2.751
20:40:20.260	3.22	2.693
20:40:20.293	3.22	2.497
20:40:20.327	3.22	2.290
20:40:20.360	3.22	2.135
20:40:20.393	3.22	2.011
20:40:20.427	3.22	1.935
20:40:20.460	3.22	1.914
20:40:20.493	3.22	1.916
20:40:20.527	3.22	1.909
20:40:20.560	3.22	1.859
20:40:20.593	3.22	1.815
20:40:20.627	3.22	1.803
20:40:20.660	3.22	1.806
20:40:20.693	3.22	1.822
20:40:20.727	3.22	1.853
20:40:20.760	3.22	1.921
20:40:20.793	3.22	2.368
20:40:20.827	3.22	2.739
20:40:20.860	3.22	2.805
20:40:20.893	3.22	2.644
20:40:20.927	3.22	2.440
20:40:20.960	3.22	2.270
20:40:20.993	3.22	2.135
20:40:21.027	3.22	2.015
20:40:21.060	3.22	1.914
20:40:21.093	3.22	1.855
20:40:21.127	3.22	1.833
20:40:21.160	3.22	1.806
20:40:21.193	3.22	1.792
20:40:21.227	3.22	1.751
20:40:21.260	3.22	1.737
20:40:21.293	3.22	1.744
20:40:21.327	3.22	1.768
20:40:21.360	3.22	1.808
20:40:21.393	3.22	1.841
20:40:21.427	3.22	2.089
20:40:21.460	3.22	2.618
20:40:21.493	3.22	2.869
20:40:21.527	3.22	2.828
20:40:21.560	3.22	2.648
20:40:21.593	3.22	2.448
20:40:21.627	3.22	2.281
20:40:21.660	3.22	2.147
20:40:21.693	3.22	2.000
20:40:21.727	3.22	1.956
20:40:21.760	3.22	1.844
20:40:21.793	3.22	1.789
20:40:21.827	3.22	1.740
20:40:21.860	3.22	1.701
20:40:21.893	3.22	1.669
20:40:21.927	3.22	1.666
20:40:21.960	3.22	1.690
20:40:21.993	3.22	1.726
20:40:22.027	3.22	1.769
20:40:22.060	3.22	1.813
20:40:22.093	3.22	1.857
20:40:22.127	3.22	2.109
20:40:22.160	3.22	2.657
20:40:22.193	3.22	2.871
20:40:22.227	3.22	2.781
20:40:22.260	3.22	2.708
20:40:22.293	3.22	2.413
20:40:22.327	3.22	2.212
20:40:22.360	3.22	2.069
20:40:22.393	3.22	1.939
20:40:22.427	3.22	1.858
20:40:22.460	3.22	1.840
20:40:22.493	3.22	1.843
20:40:22.527	3.22	1.824
20:40:22.560	3.22	1.795
20:40:22.593	3.22	1.780
20:40:22.627	3.22	1.763
20:40:22.660	3.22	1.772
20:40:22.693	3.22	1.840
20:40:22.727	3.22	2.249
20:40:22.760	3.22	2.603
20:40:22.793	3.22	2.625
20:40:22.827	3.22	2.540
20:40:22.860	3.22	2.375
20:40:22.893	3.22	2.236
20:40:22.927	3.22	2.107
20:40:22.960	3.22	1.987
20:40:22.993	3.22	1.916
20:40:23.027	3.22	1.899
20:40:23.060	3.22	1.886
20:40:23.093	3.22	1.861
20:40:23.127	3.23	1.823
20:40:23.160	3.22	1.797
20:40:23.193	3.23	1.790
20:40:23.227	3.22	1.800
20:40:23.260	3.22	2.005
20:40:23.293	3.22	2.422
20:40:23.327	3.23	2.499
20:40:23.360	3.23	2.583
20:40:23.393	3.23	2.477
20:40:23.427	3.23	2.334
20:40:23.460	3.23	2.205
20:40:23.493	3.23	2.094
20:40:23.527	3.23	1.996
20:40:23.560	3.23	1.923
20:40:23.593	3.23	1.899
20:40:23.627	3.23	1.939
20:40:23.660	3.23	2.001
20:40:23.693	3.23	2.045
20:40:23.727	3.23	2.050
20:40:23.760	3.23	2.009
20:40:23.793	3.23	1.959
20:40:23.827	3.24	2.121
20:40:23.860	3.24	2.229
20:40:23.893	3.24	2.608
20:40:23.927	3.24	2.686
20:40:23.960	3.24	2.562
20:40:23.993	3.24	2.362
20:40:24.027	3.24	2.161
20:40:24.060	3.25	1.945
20:40:24.093	3.25	1.758
20:40:24.127	3.26	1.652
20:40:24.160	3.26	1.599
20:40:24.193	3.27	1.582
20:40:24.227	3.27	1.574
20:40:24.260	3.27	1.568
20:40:24.293	3.27	1.561
20:40:24.327	3.28	1.564
20:40:24.360	3.29	1.620
20:40:24.393	3.29	1.731
20:40:24.427	3.29	2.208
20:40:24.460	3.30	2.423
20:40:24.493	3.30	2.410
20:40:24.527	3.31	2.305
20:40:24.560	3.31	2.206
20:40:24.593	3.32	2.113
20:40:24.627	3.32	2.013
20:40:24.660	3.33	1.938
20:40:24.693	3.33	1.894
20:40:24.727	3.34	1.886
20:40:24.760	3.34	1.866
20:40:24.793	3.35	1.819
20:40:24.827	3.35	1.789
20:40:24.860	3.36	1.781
20:40:24.893	3.36	1.788
20:40:24.927	3.36	1.803
20:40:24.960	3.37	2.126
20:40:24.993	3.37	2.484
20:40:25.027	3.37	2.604
20:40:25.060	3.37	2.545
20:40:25.093	3.38	2.408
20:40:25.127	3.38	2.280
20:40:25.160	3.39	2.178
20:40:25.193	3.39	2.066
20:40:25.227	3.39	1.977
20:40:25.260	3.39	1.943
20:40:25.293	3.40	1.928
20:40:25.327	3.40	1.904
20:40:25.360	3.40	1.879
20:40:25.393	3.41	1.855
20:40:25.427	3.41	1.850
20:40:25.460	3.41	1.855
20:40:25.493	3.42	1.874
20:40:25.527	3.42	1.902
20:40:25.560	3.42	2.129
20:40:25.593	3.42	2.466
20:40:25.627	3.42	2.595
20:40:25.660	3.42	2.551
20:40:25.693	3.42	2.441
20:40:25.727	3.42	2.329
20:40:25.760	3.42	2.237
20:40:25.793	3.42	2.131
20:40:25.827	3.42	2.041
20:40:25.860	3.42	1.988
20:40:25.893	3.43	1.943
20:40:25.927	3.43	1.889
20:40:25.960	3.43	1.848
20:40:25.993	3.43	1.839
20:40:26.027	3.43	1.817
20:40:26.060	3.43	1.831
20:40:26.093	3.43	1.863
20:40:26.127	3.43	1.889
20:40:26.160	3.44	2.021
20:40:26.193	3.43	2.317
20:40:26.227	3.44	2.466
20:40:26.260	3.43	2.444
20:40:26.293	3.44	2.355
20:40:26.327	3.43	2.261
20:40:26.360	3.43	2.176
20:40:26.393	3.44	2.085
20:40:26.427	3.44	1.999
20:40:26.460	3.44	1.948
20:40:26.493	3.44	1.928
20:40:26.527	3.44	1.917
20:40:26.560	3.44	1.863
20:40:26.593	3.43	1.817
20:40:26.627	3.44	1.788
20:40:26.660	3.43	1.789
20:40:26.693	3.44	1.804
20:40:26.727	3.43	1.819
20:40:26.760	3.43	1.831
20:40:26.793	3.44	1.868
20:40:26.827	3.43	1.918
20:40:26.860	3.44	2.246
20:40:26.893	3.44	2.505
20:40:26.927	3.44	2.501
20:40:26.960	3.44	2.356
20:40:26.993	3.44	2.227
20:40:27.027	3.43	2.150
20:40:27.060	3.43	2.132
20:40:27.093	3.43	2.074
20:40:27.127	3.43	2.049
20:40:27.160	3.43	2.029
20:40:27.193	3.43	1.994
20:40:27.227	3.43	1.939
20:40:27.260	3.43	1.882
20:40:27.293	3.42	1.842
20:40:27.327	3.42	1.845
20:40:27.360	3.42	1.880
20:40:27.393	3.42	1.930
20:40:27.427	3.42	1.967
20:40:27.460	3.42	2.127
20:40:27.493	3.42	2.512
20:40:27.527	3.42	2.612
20:40:27.560	3.42	2.477
20:40:27.593	3.42	2.418
20:40:27.627	3.42	2.213
20:40:27.660	3.42	2.094
20:40:27.693	3.42	2.040
20:40:27.727	3.42	2.018
20:40:27.760	3.42	2.003
20:40:27.793	3.42	1.994
20:40:27.827	3.41	1.988
20:40:27.860	3.41	1.975
20:40:27.893	3.42	1.967
20:40:27.927	3.41	1.972
20:40:27.960	3.41	1.981
20:40:27.993	3.41	2.105
20:40:28.027	3.41	2.348
20:40:28.060	3.41	2.422
20:40:28.093	3.41	2.327
20:40:28.127	3.41	2.282
20:40:28.160	3.40	2.117
20:40:28.193	3.40	2.031
20:40:28.227	3.40	1.991
20:40:28.260	3.40	1.982
20:40:28.293	3.40	1.986
20:40:28.327	3.40	1.995
20:40:28.360	3.40	1.990
20:40:28.393	3.40	1.973
20:40:28.427	3.40	1.952
20:40:28.460	3.39	1.937
20:40:28.493	3.40	1.931
20:40:28.527	3.39	1.948
20:40:28.560	3.39	2.163
20:40:28.593	3.39	2.431
20:40:28.627	3.39	2.471
20:40:28.660	3.39	2.422
20:40:28.693	3.39	2.233
20:40:28.727	3.39	2.100
20:40:28.760	3.39	2.035
20:40:28.793	3.39	1.987
20:40:28.827	3.39	1.960
20:40:28.860	3.39	1.962
20:40:28.893	3.39	1.975
20:40:28.927	3.40	1.974
20:40:28.960	3.39	1.961
20:40:28.993	3.39	1.945
20:40:29.027	3.39	1.942
20:40:29.060	3.39	1.953
20:40:29.093	3.39	1.969
20:40:29.127	3.39	2.141
20:40:29.160	3.39	2.410
20:40:29.193	3.39	2.421
20:40:29.227	3.39	2.325
20:40:29.260	3.39	2.197
20:40:29.293	3.39	2.100
20:40:29.327	3.40	2.042
20:40:29.360	3.40	1.999
20:40:29.393	3.40	1.973
20:40:29.427	3.40	1.970
20:40:29.460	3.40	1.982
20:40:29.493	3.40	1.983
20:40:29.527	3.40	1.972
20:40:29.560	3.40	1.964
20:40:29.593	3.41	1.966
20:40:29.627	3.41	1.964
20:40:29.660	3.42	1.968
20:40:29.693	3.42	2.068
20:40:29.727	3.42	2.148
20:40:29.760	3.42	2.352
20:40:29.793	3.42	2.315
20:40:29.827	3.42	2.190
20:40:29.860	3.42	2.095
20:40:29.893	3.42	2.042
20:40:29.927	3.43	2.001
20:40:29.960	3.43	1.973
20:40:29.993	3.43	1.972
20:40:30.027	3.43	1.975
20:40:30.060	3.43	1.969
20:40:30.093	3.43	1.958
20:40:30.127	3.43	1.943
20:40:30.160	3.44	1.932
20:40:30.193	3.44	1.935
20:40:30.227	3.44	1.939
20:40:30.260	3.44	1.961
20:40:30.293	3.44	2.279
20:40:30.327	3.44	2.444
20:40:30.360	3.44	2.381
20:40:30.393	3.44	2.238
20:40:30.427	3.44	2.121
20:40:30.460	3.44	2.055
20:40:30.493	3.44	2.027
20:40:30.527	3.44	1.998
20:40:30.560	3.44	1.987
20:40:30.593	3.44	1.992
20:40:30.627	3.44	1.989
20:40:30.660	3.44	1.967
20:40:30.693	3.44	1.952
20:40:30.727	3.44	1.938
20:40:30.760	3.44	1.927
20:40:30.793	3.45	1.926
20:40:30.827	3.45	2.009
20:40:30.860	3.45	2.295
20:40:30.893	3.44	2.422
20:40:30.927	3.44	2.356
20:40:30.960	3.44	2.216
20:40:30.993	3.44	2.103
20:40:31.027	3.44	2.052
20:40:31.060	3.44	2.010
20:40:31.093	3.45	1.983
20:40:31.127	3.44	1.994
20:40:31.160	3.44	2.003
20:40:31.193	3.44	1.994
20:40:31.227	3.44	1.974
20:40:31.260	3.45	1.962
20:40:31.293	3.44	1.949
20:40:31.327	3.44	1.950
20:40:31.360	3.44	1.990
20:40:31.393	3.45	2.249
20:40:31.427	3.44	2.426
20:40:31.460	3.44	2.398
20:40:31.493	3.44	2.277
20:40:31.527	3.44	2.165
20:40:31.560	3.44	2.091
20:40:31.593	3.44	2.032
20:40:31.627	3.44	1.984
20:40:31.660	3.44	1.967
20:40:31.693	3.44	1.969
20:40:31.727	3.44	1.977
20:40:31.760	3.44	1.967
20:40:31.793	3.44	1.951
20:40:31.827	3.44	1.951
20:40:31.860	3.44	1.952
20:40:31.893	3.44	1.973
20:40:31.927	3.44	2.205
20:40:31.960	3.44	2.427
20:40:31.993	3.44	2.449
20:40:32.027	3.44	2.368
20:40:32.060	3.44	2.291
20:40:32.093	3.44	2.254
20:40:32.127	3.43	2.228
20:40:32.160	3.44	2.158
20:40:32.193	3.44	2.058
20:40:32.227	3.43	1.977
20:40:32.260	3.44	1.934
20:40:32.293	3.43	1.916
20:40:32.327	3.43	1.896
20:40:32.360	3.44	1.902
20:40:32.393	3.43	1.907
20:40:32.427	3.43	1.948
20:40:32.460	3.43	2.073
20:40:32.493	3.43	2.296
20:40:32.527	3.43	2.432
20:40:32.560	3.43	2.452
20:40:32.593	3.43	2.414
20:40:32.627	3.42	2.340
20:40:32.660	3.43	2.261
20:40:32.693	3.42	2.161
20:40:32.727	3.42	2.063
20:40:32.760	3.42	2.016
20:40:32.793	3.42	1.971
20:40:32.827	3.42	1.928
20:40:32.860	3.42	1.876
20:40:32.893	3.42	1.808
20:40:32.927	3.42	1.789
20:40:32.960	3.42	1.754
20:40:32.993	3.42	1.777
20:40:33.027	3.42	1.832
20:40:33.060	3.42	2.024
20:40:33.093	3.42	2.215
20:40:33.127	3.42	2.228
20:40:33.160	3.42	2.127
20:40:33.193	3.42	2.026
20:40:33.227	3.42	1.976
20:40:33.260	3.42	1.971
20:40:33.293	3.42	1.954
20:40:33.327	3.42	1.916
20:40:33.360	3.42	1.885
20:40:33.393	3.42	1.895
20:40:33.427	3.42	1.930
20:40:33.460	3.42	1.945
20:40:33.493	3.42	2.013
20:40:33.527	3.42	2.055
20:40:33.560	3.42	2.039
20:40:33.593	3.42	1.999
20:40:33.627	3.42	1.992
20:40:33.660	3.42	2.097
20:40:33.693	3.41	2.316
20:40:33.727	3.41	2.420
20:40:33.760	3.41	2.368
20:40:33.793	3.41	2.267
20:40:33.827	3.41	2.182
20:40:33.860	3.41	2.112
20:40:33.893	3.41	2.044
20:40:33.927	3.41	2.003
20:40:33.960	3.41	1.998
20:40:33.993	3.41	1.996
20:40:34.027	3.41	1.974
20:40:34.060	3.41	1.925
20:40:34.093	3.41	1.895
20:40:34.127	3.42	1.907
20:40:34.160	3.41	1.912
20:40:34.193	3.42	1.919
20:40:34.227	3.42	1.985
20:40:34.260	3.42	2.227
20:40:34.293	3.42	2.382
20:40:34.327	3.42	2.370
20:40:34.360	3.42	2.267
20:40:34.393	3.42	2.165
20:40:34.427	3.42	2.109
20:40:34.460	3.42	2.054
20:40:34.493	3.43	1.983
20:40:34.527	3.42	1.966
20:40:34.560	3.43	1.927
20:40:34.593	3.43	1.900
20:40:34.627	3.43	1.890
20:40:34.660	3.44	1.888
20:40:34.693	3.44	1.891
20:40:34.727	3.44	1.904
20:40:34.760	3.44	1.918
20:40:34.793	3.44	1.935
20:40:34.827	3.45	2.155
20:40:34.860	3.45	2.428
20:40:34.893	3.45	2.453
20:40:34.927	3.45	2.330
20:40:34.960	3.45	2.197
20:40:34.993	3.45	2.118
20:40:35.027	3.45	2.084
20:40:35.060	3.46	2.074
20:40:35.093	3.46	2.031
20:40:35.127	3.46	1.997
20:40:35.160	3.46	1.981
20:40:35.193	3.46	1.971
20:40:35.227	3.46	1.960
20:40:35.260	3.46	1.948
20:40:35.293	3.46	1.942
20:40:35.327	3.47	1.935
20:40:35.360	3.46	1.944
20:40:35.393	3.47	1.985
20:40:35.427	3.47	2.240
20:40:35.460	3.47	2.437
20:40:35.493	3.47	2.418
20:40:35.527	3.47	2.291
20:40:35.560	3.47	2.168
20:40:35.593	3.47	2.145
20:40:35.627	3.47	2.081
20:40:35.660	3.47	2.040
20:40:35.693	3.47	2.010
20:40:35.727	3.47	2.001
20:40:35.760	3.47	2.011
20:40:35.793	3.47	2.007
20:40:35.827	3.47	1.978
20:40:35.860	3.47	1.959
20:40:35.893	3.47	1.954
20:40:35.927	3.47	1.942
20:40:35.960	3.47	1.981
20:40:35.993	3.47	2.234
20:40:36.027	3.47	2.380
20:40:36.060	3.47	2.343
20:40:36.093	3.47	2.245
20:40:36.127	3.47	2.216
20:40:36.160	3.47	2.121
20:40:36.193	3.47	2.070
20:40:36.227	3.47	2.016
20:40:36.260	3.47	1.986
20:40:36.293	3.47	1.981
20:40:36.327	3.47	1.977
20:40:36.360	3.47	1.970
20:40:36.393	3.47	1.971
20:40:36.427	3.47	1.961
20:40:36.460	3.47	1.945
20:40:36.493	3.47	1.957
20:40:36.527	3.47	1.978
20:40:36.560	3.47	2.165
20:40:36.593	3.47	2.349
20:40:36.627	3.47	2.342
20:40:36.660	3.47	2.304
20:40:36.693	3.47	2.162
20:40:36.727	3.47	2.097
20:40:36.760	3.47	2.067
20:40:36.793	3.47	2.030
20:40:36.827	3.46	1.997
20:40:36.860	3.47	1.994
20:40:36.893	3.47	2.017
20:40:36.927	3.47	2.042
20:40:36.960	3.47	2.044
20:40:36.993	3.47	2.042
20:40:37.027	3.46	2.036
20:40:37.060	3.46	2.022
20:40:37.093	3.46	2.014
20:40:37.127	3.46	2.019
20:40:37.160	3.47	2.191
20:40:37.193	3.46	2.243
20:40:37.227	3.47	2.300
20:40:37.260	3.47	2.228
20:40:37.293	3.47	2.150
20:40:37.327	3.47	2.099
20:40:37.360	3.47	2.067
20:40:37.393	3.47	2.024
20:40:37.427	3.47	1.988
20:40:37.460	3.47	1.967
20:40:37.493	3.47	1.966
20:40:37.527	3.47	1.963
20:40:37.560	3.47	1.950
20:40:37.593	3.47	1.942
20:40:37.627	3.47	1.951
20:40:37.660	3.48	1.958
20:40:37.693	3.48	1.966
20:40:37.727	3.48	1.972
20:40:37.760	3.49	2.072
20:40:37.793	3.49	2.286
20:40:37.827	3.49	2.365
20:40:37.860	3.49	2.304
20:40:37.893	3.49	2.210
20:40:37.927	3.49	2.148
20:40:37.960	3.49	2.110
20:40:37.993	3.50	2.061
20:40:38.027	3.50	2.023
20:40:38.060	3.50	2.002
20:40:38.093	3.51	1.982
20:40:38.127	3.51	1.978
20:40:38.160	3.51	1.968
20:40:38.193	3.51	1.950
20:40:38.227	3.51	1.952
20:40:38.260	3.51	1.953
20:40:38.293	3.51	1.963
20:40:38.327	3.51	1.975
20:40:38.360	3.52	1.992
20:40:38.393	3.52	2.103
20:40:38.427	3.52	2.305
20:40:38.460	3.52	2.367
20:40:38.493	3.52	2.297
20:40:38.527	3.52	2.207
20:40:38.560	3.52	2.149
20:40:38.593	3.52	2.101
20:40:38.627	3.52	2.049
20:40:38.660	3.52	2.013
20:40:38.693	3.52	1.995
20:40:38.727	3.52	1.980
20:40:38.760	3.52	1.975
20:40:38.793	3.52	1.969
20:40:38.827	3.52	1.952
20:40:38.860	3.52	1.956
20:40:38.893	3.52	1.962
20:40:38.927	3.52	1.962
20:40:38.960	3.52	1.998
20:40:38.993	3.52	2.201
20:40:39.027	3.52	2.358
20:40:39.060	3.52	2.356
20:40:39.093	3.52	2.269
20:40:39.127	3.52	2.179
20:40:39.160	3.52	2.121
20:40:39.193	3.52	2.079
20:40:39.227	3.52	2.022
20:40:39.260	3.52	1.991
20:40:39.293	3.52	1.986
20:40:39.327	3.52	1.984
20:40:39.360	3.52	1.963
20:40:39.393	3.52	1.947
20:40:39.427	3.52	1.940
20:40:39.460	3.52	1.942
20:40:39.493	3.52	1.956
20:40:39.527	3.52	1.969
20:40:39.560	3.52	1.978
20:40:39.593	3.52	1.997
20:40:39.627	3.52	2.199
20:40:39.660	3.52	2.434
20:40:39.693	3.52	2.482
20:40:39.727	3.52	2.393
20:40:39.760	3.52	2.271
20:40:39.793	3.52	2.179
20:40:39.827	3.52	2.122
20:40:39.860	3.52	2.094
20:40:39.893	3.52	2.013
20:40:39.927	3.51	1.973
20:40:39.960	3.51	1.947
20:40:39.993	3.51	1.928
20:40:40.027	3.51	1.927
20:40:40.060	3.51	1.916
20:40:40.093	3.51	1.905
20:40:40.127	3.51	1.918
20:40:40.160	3.51	1.929
20:40:40.193	3.51	1.941
20:40:40.227	3.50	1.947
20:40:40.260	3.51	2.056
20:40:40.293	3.50	2.330
20:40:40.327	3.50	2.446
20:40:40.360	3.50	2.376
20:40:40.393	3.50	2.332
20:40:40.427	3.50	2.192
20:40:40.460	3.49	2.114
20:40:40.493	3.49	2.043
20:40:40.527	3.49	1.997
20:40:40.560	3.49	1.971
20:40:40.593	3.49	1.962
20:40:40.627	3.49	1.961
20:40:40.660	3.49	1.942
20:40:40.693	3.49	1.920
20:40:40.727	3.49	1.912
20:40:40.760	3.49	1.905
20:40:40.793	3.49	1.905
20:40:40.827	3.49	1.962
20:40:40.860	3.49	2.222
20:40:40.893	3.49	2.394
20:40:40.927	3.49	2.391
20:40:40.960	3.48	2.295
20:40:40.993	3.48	2.183
20:40:41.027	3.48	2.112
20:40:41.060	3.48	2.070
20:40:41.093	3.48	2.037
20:40:41.127	3.47	2.024
20:40:41.160	3.45	2.024
20:40:41.193	3.42	2.022
20:40:41.227	3.37	1.991
20:40:41.260	3.33	1.965
20:40:41.293	3.29	1.936
20:40:41.327	3.27	1.905
20:40:41.360	3.27	1.951
20:40:41.393	3.29	2.092
20:40:41.427	3.32	2.374
20:40:41.460	3.32	2.412
20:40:41.493	3.29	2.422
20:40:41.527	3.25	2.345
20:40:41.560	3.21	2.274
20:40:41.593	3.16	2.207
20:40:41.627	3.12	2.123
20:40:41.660	3.10	2.040
20:40:41.693	3.08	1.948
20:40:41.727	3.07	1.849
20:40:41.760	3.08	1.713
20:40:41.793	3.14	1.629
20:40:41.827	3.24	1.618
20:40:41.860	3.35	1.696
20:40:41.893	3.45	1.726
20:40:41.927	3.53	1.748
20:40:41.960	3.60	1.873
20:40:41.993	3.62	1.953
20:40:42.027	3.70	2.155
20:40:42.060	3.75	2.262
20:40:42.093	3.79	2.452
20:40:42.127	3.81	2.553
20:40:42.160	3.83	2.585
20:40:42.193	3.83	2.510
20:40:42.227	3.83	2.333
20:40:42.260	3.83	2.175
20:40:42.293	3.83	2.075
20:40:42.327	3.83	2.010
20:40:42.360	3.83	1.959
20:40:42.393	3.83	1.931
20:40:42.427	3.82	1.889
20:40:42.460	3.82	1.854
20:40:42.493	3.80	1.857
20:40:42.527	3.80	1.889
20:40:42.560	3.78	2.142
20:40:42.593	3.76	2.378
20:40:42.627	3.74	2.486
20:40:42.660	3.73	2.473
20:40:42.693	3.72	2.404
20:40:42.727	3.70	2.269
20:40:42.760	3.70	2.110
20:40:42.793	3.68	1.988
20:40:42.827	3.67	1.909
20:40:42.860	3.67	1.851
20:40:42.893	3.66	1.817
20:40:42.927	3.65	1.764
20:40:42.960	3.65	1.708
20:40:42.993	3.65	1.685
20:40:43.027	3.64	1.682
20:40:43.060	3.64	1.711
20:40:43.093	3.62	1.997
20:40:43.127	3.62	2.280
20:40:43.160	3.61	2.485
20:40:43.193	3.61	2.833
20:40:43.227	3.61	2.981
20:40:43.260	3.61	2.703
20:40:43.293	3.60	2.174
20:40:43.327	3.60	1.680
20:40:43.360	3.60	1.331
20:40:43.393	3.60	1.213
20:40:43.427	3.59	1.236
20:40:43.460	3.59	1.312
20:40:43.493	3.59	1.435
20:40:43.527	3.58	1.580
20:40:43.560	3.58	1.728
20:40:43.593	3.59	1.783
20:40:43.627	3.59	2.069
20:40:43.660	3.59	2.472
20:40:43.693	3.59	2.668
20:40:43.727	3.60	2.640
20:40:43.760	3.60	2.522
20:40:43.793	3.60	2.407
20:40:43.827	3.60	2.324
20:40:43.860	3.60	2.245
20:40:43.893	3.60	2.152
20:40:43.927	3.60	2.078
20:40:43.960	3.60	2.030
20:40:43.993	3.60	1.987
20:40:44.027	3.60	1.958
20:40:44.060	3.60	1.935
20:40:44.093	3.60	1.907
20:40:44.127	3.60	1.905
20:40:44.160	3.60	1.916
20:40:44.193	3.60	1.927
20:40:44.227	3.60	1.937
20:40:44.260	3.60	1.956
20:40:44.293	3.60	1.993
20:40:44.327	3.60	2.249
20:40:44.360	3.60	2.470
20:40:44.393	3.60	2.499
20:40:44.427	3.60	2.408
20:40:44.460	3.60	2.313
20:40:44.493	3.60	2.231
20:40:44.527	3.60	2.140
20:40:44.560	3.60	2.066
20:40:44.593	3.60	2.018
20:40:44.627	3.60	1.986
20:40:44.660	3.60	1.982
20:40:44.693	3.60	1.956
20:40:44.727	3.60	1.917
20:40:44.760	3.60	1.890
20:40:44.793	3.60	1.880
20:40:44.827	3.60	1.878
20:40:44.860	3.60	1.888
20:40:44.893	3.60	1.879
20:40:44.927	3.60	1.900
20:40:44.960	3.60	1.942
20:40:44.993	3.60	1.967
20:40:45.027	3.59	1.971
20:40:45.060	3.59	2.148
20:40:45.093	3.59	2.460
20:40:45.127	3.60	2.563
20:40:45.160	3.59	2.492
20:40:45.193	3.59	2.449
20:40:45.227	3.59	2.294
20:40:45.260	3.59	2.189
20:40:45.293	3.59	2.107
20:40:45.327	3.59	2.022
20:40:45.360	3.58	1.968
20:40:45.393	3.59	1.956
20:40:45.427	3.58	1.938
20:40:45.460	3.58	1.918
20:40:45.493	3.58	1.907
20:40:45.527	3.58	1.902
20:40:45.560	3.58	1.898
20:40:45.593	3.57	1.911
20:40:45.627	3.57	1.924
20:40:45.660	3.57	1.932
20:40:45.693	3.58	1.953
20:40:45.727	3.57	1.963
20:40:45.760	3.57	2.178
20:40:45.793	3.57	2.422
20:40:45.827	3.57	2.484
20:40:45.860	3.57	2.399
20:40:45.893	3.57	2.282
20:40:45.927	3.57	2.188
20:40:45.960	3.57	2.110
20:40:45.993	3.57	2.038
20:40:46.027	3.57	1.987
20:40:46.060	3.57	1.967
20:40:46.093	3.57	1.954
20:40:46.127	3.56	1.950
20:40:46.160	3.56	1.924
20:40:46.193	3.56	1.913
20:40:46.227	3.56	1.907
20:40:46.260	3.56	1.907
20:40:46.293	3.56	1.910
20:40:46.327	3.56	1.933
20:40:46.360	3.56	2.061
20:40:46.393	3.55	2.334
20:40:46.427	3.55	2.491
20:40:46.460	3.55	2.462
20:40:46.493	3.55	2.344
20:40:46.527	3.55	2.244
20:40:46.560	3.55	2.166
20:40:46.593	3.55	2.087
20:40:46.627	3.54	2.024
20:40:46.660	3.54	1.976
20:40:46.693	3.54	1.957
20:40:46.727	3.54	1.951
20:40:46.760	3.54	1.937
20:40:46.793	3.54	1.928
20:40:46.827	3.54	1.885
20:40:46.860	3.54	1.848
20:40:46.893	3.54	1.831
20:40:46.927	3.54	1.847
20:40:46.960	3.54	1.882
20:40:46.993	3.54	1.960
20:40:47.027	3.54	2.284
20:40:47.060	3.54	2.520
20:40:47.093	3.54	2.526
20:40:47.127	3.54	2.410
20:40:47.160	3.53	2.306
20:40:47.193	3.53	2.236
20:40:47.227	3.53	2.181
20:40:47.260	3.54	2.107
20:40:47.293	3.53	2.028
20:40:47.327	3.53	2.009
20:40:47.360	3.53	1.962
20:40:47.393	3.53	1.916
20:40:47.427	3.53	1.875
20:40:47.460	3.53	1.864
20:40:47.493	3.52	1.862
20:40:47.527	3.52	1.866
20:40:47.560	3.52	1.881
20:40:47.593	3.52	1.913
20:40:47.627	3.52	2.086
20:40:47.660	3.52	2.391
20:40:47.693	3.52	2.546
20:40:47.727	3.52	2.506
20:40:47.760	3.52	2.389
20:40:47.793	3.52	2.270
20:40:47.827	3.51	2.170
20:40:47.860	3.52	2.136
20:40:47.893	3.51	2.003
20:40:47.927	3.51	1.913
20:40:47.960	3.51	1.877
20:40:47.993	3.51	1.859
20:40:48.027	3.51	1.857
20:40:48.060	3.51	1.853
20:40:48.093	3.51	1.840
20:40:48.127	3.51	1.817
20:40:48.160	3.51	1.810
20:40:48.193	3.51	1.822
20:40:48.227	3.51	1.842
20:40:48.260	3.50	1.947
20:40:48.293	3.50	2.340
20:40:48.327	3.50	2.570
20:40:48.360	3.50	2.568
20:40:48.393	3.50	2.527
20:40:48.427	3.50	2.344
20:40:48.460	3.50	2.214
20:40:48.493	3.50	2.122
20:40:48.527	3.49	2.033
20:40:48.560	3.49	1.973
20:40:48.593	3.49	1.959
20:40:48.627	3.49	1.946
20:40:48.660	3.49	1.913
20:40:48.693	3.49	1.885
20:40:48.727	3.49	1.860
20:40:48.760	3.49	1.845
20:40:48.793	3.49	1.854
20:40:48.827	3.49	1.881
20:40:48.860	3.49	1.942
20:40:48.893	3.49	2.257
20:40:48.927	3.49	2.343
20:40:48.960	3.49	2.499
20:40:48.993	3.49	2.451
20:40:49.027	3.49	2.324
20:40:49.060	3.49	2.207
20:40:49.093	3.49	2.106
20:40:49.127	3.49	2.006
20:40:49.160	3.49	1.935
20:40:49.193	3.48	1.900
20:40:49.227	3.48	1.883
20:40:49.260	3.48	1.852
20:40:49.293	3.48	1.829
20:40:49.327	3.48	1.819
20:40:49.360	3.48	1.818
20:40:49.393	3.48	1.838
20:40:49.427	3.48	1.868
20:40:49.460	3.47	1.899
20:40:49.493	3.47	2.272
20:40:49.527	3.48	2.577
20:40:49.560	3.47	2.630
20:40:49.593	3.48	2.528
20:40:49.627	3.47	2.401
20:40:49.660	3.47	2.288
20:40:49.693	3.47	2.178
20:40:49.727	3.47	2.062
20:40:49.760	3.47	1.950
20:40:49.793	3.47	1.876
20:40:49.827	3.47	1.848
20:40:49.860	3.47	1.821
20:40:49.893	3.47	1.789
20:40:49.927	3.47	1.773
20:40:49.960	3.47	1.772
20:40:49.993	3.47	1.776
20:40:50.027	3.47	1.805
20:40:50.060	3.47	1.839
20:40:50.093	3.47	2.026
20:40:50.127	3.47	2.419
20:40:50.160	3.47	2.637
20:40:50.193	3.46	2.628
20:40:50.227	3.46	2.509
20:40:50.260	3.46	2.372
20:40:50.293	3.47	2.249
20:40:50.327	3.47	2.133
20:40:50.360	3.46	2.024
20:40:50.393	3.46	1.920
20:40:50.427	3.47	1.865
20:40:50.460	3.46	1.841
20:40:50.493	3.46	1.822
20:40:50.527	3.46	1.819
20:40:50.560	3.46	1.810
20:40:50.593	3.46	1.803
20:40:50.627	3.46	1.805
20:40:50.660	3.46	1.824
20:40:50.693	3.46	1.843
20:40:50.727	3.46	2.098
20:40:50.760	3.46	2.481
20:40:50.793	3.45	2.661
20:40:50.827	3.46	2.630
20:40:50.860	3.45	2.501
20:40:50.893	3.45	2.366
20:40:50.927	3.45	2.242
20:40:50.960	3.45	2.125
20:40:50.993	3.45	1.988
20:40:51.027	3.45	1.900
20:40:51.060	3.45	1.886
20:40:51.093	3.45	1.819
20:40:51.127	3.45	1.760
20:40:51.160	3.45	1.733
20:40:51.193	3.45	1.719
20:40:51.227	3.45	1.725
20:40:51.260	3.44	1.749
20:40:51.293	3.45	1.778
20:40:51.327	3.44	1.832
20:40:51.360	3.44	2.226
20:40:51.393	3.45	2.607
20:40:51.427	3.44	2.730
20:40:51.460	3.44	2.652
20:40:51.493	3.44	2.497
20:40:51.527	3.44	2.340
20:40:51.560	3.44	2.216
20:40:51.593	3.44	2.168
20:40:51.627	3.44	2.006
20:40:51.660	3.44	1.914
20:40:51.693	3.44	1.867
20:40:51.727	3.44	1.819
20:40:51.760	3.44	1.778
20:40:51.793	3.44	1.754
20:40:51.827	3.44	1.737
20:40:51.860	3.44	1.729
20:40:51.893	3.44	1.736
20:40:51.927	3.44	1.749
20:40:51.960	3.44	1.864
20:40:51.993	3.44	2.310
20:40:52.027	3.44	2.605
20:40:52.060	3.44	2.652
20:40:52.093	3.44	2.550
20:40:52.127	3.44	2.505
20:40:52.160	3.44	2.326
20:40:52.193	3.44	2.188
20:40:52.227	3.44	2.055
20:40:52.260	3.44	1.957
20:40:52.293	3.44	1.915
20:40:52.327	3.44	1.883
20:40:52.360	3.44	1.837
20:40:52.393	3.43	1.800
20:40:52.427	3.43	1.775
20:40:52.460	3.43	1.766
20:40:52.493	3.43	1.780
20:40:52.527	3.43	1.805
20:40:52.560	3.44	2.026
20:40:52.593	3.43	2.408
20:40:52.627	3.43	2.618
20:40:52.660	3.43	2.610
20:40:52.693	3.43	2.478
20:40:52.727	3.43	2.340
20:40:52.760	3.43	2.218
20:40:52.793	3.43	2.094
20:40:52.827	3.43	1.992
20:40:52.860	3.43	1.926
20:40:52.893	3.43	1.896
20:40:52.927	3.43	1.868
20:40:52.960	3.43	1.821
20:40:52.993	3.43	1.780
20:40:53.027	3.43	1.766
20:40:53.060	3.43	1.762
20:40:53.093	3.43	1.777
20:40:53.127	3.43	1.956
20:40:53.160	3.43	2.358
20:40:53.193	3.43	2.436
20:40:53.227	3.42	2.585
20:40:53.260	3.43	2.517
20:40:53.293	3.43	2.383
20:40:53.327	3.42	2.286
20:40:53.360	3.42	2.175
20:40:53.393	3.42	2.033
20:40:53.427	3.42	1.931
20:40:53.460	3.43	1.881
20:40:53.493	3.42	1.846
20:40:53.527	3.42	1.812
20:40:53.560	3.42	1.770
20:40:53.593	3.42	1.735
20:40:53.627	3.42	1.734
20:40:53.660	3.42	1.746
20:40:53.693	3.42	1.766
20:40:53.727	3.42	1.845
20:40:53.760	3.42	2.354
20:40:53.793	3.42	2.667
20:40:53.827	3.42	2.722
20:40:53.860	3.42	2.610
20:40:53.893	3.42	2.451
20:40:53.927	3.42	2.321
20:40:53.960	3.42	2.204
20:40:53.993	3.42	2.067
20:40:54.027	3.42	1.943
20:40:54.060	3.42	1.868
20:40:54.093	3.42	1.804
20:40:54.127	3.42	1.746
20:40:54.160	3.42	1.695
20:40:54.193	3.42	1.649
20:40:54.227	3.42	1.637
20:40:54.260	3.42	1.645
20:40:54.293	3.42	1.687
20:40:54.327	3.41	1.758
20:40:54.360	3.41	2.133
20:40:54.393	3.41	2.527
20:40:54.427	3.41	2.713
20:40:54.460	3.41	2.691
20:40:54.493	3.42	2.553
20:40:54.527	3.41	2.405
20:40:54.560	3.41	2.280
20:40:54.593	3.41	2.129
20:40:54.627	3.41	2.001
20:40:54.660	3.41	1.921
20:40:54.693	3.41	1.863
20:40:54.727	3.41	1.811
20:40:54.760	3.41	1.775
20:40:54.793	3.41	1.765
20:40:54.827	3.40	1.744
20:40:54.860	3.41	1.744
20:40:54.893	3.41	1.753
20:40:54.927	3.41	1.778
20:40:54.960	3.41	2.086
20:40:54.993	3.41	2.466
20:40:55.027	3.40	2.660
20:40:55.060	3.40	2.652
20:40:55.093	3.41	2.530
20:40:55.127	3.41	2.383
20:40:55.160	3.41	2.245
20:40:55.193	3.41	2.103
20:40:55.227	3.40	1.971
20:40:55.260	3.40	1.882
20:40:55.293	3.40	1.837
20:40:55.327	3.40	1.821
20:40:55.360	3.40	1.772
20:40:55.393	3.40	1.743
20:40:55.427	3.40	1.734
20:40:55.460	3.40	1.734
20:40:55.493	3.40	1.748
20:40:55.527	3.40	1.918
20:40:55.560	3.40	2.340
20:40:55.593	3.40	2.656
20:40:55.627	3.40	2.729
20:40:55.660	3.40	2.632
20:40:55.693	3.40	2.486
20:40:55.727	3.40	2.339
20:40:55.760	3.40	2.181
20:40:55.793	3.40	2.017
20:40:55.827	3.40	1.893
20:40:55.860	3.39	1.870
20:40:55.893	3.40	1.802
20:40:55.927	3.40	1.740
20:40:55.960	3.40	1.690
20:40:55.993	3.39	1.675
20:40:56.027	3.40	1.689
20:40:56.060	3.39	1.707
20:40:56.093	3.39	1.752
20:40:56.127	3.39	2.058
20:40:56.160	3.39	2.508
20:40:56.193	3.39	2.762
20:40:56.227	3.39	2.768
20:40:56.260	3.39	2.631
20:40:56.293	3.39	2.482
20:40:56.327	3.39	2.335
20:40:56.360	3.39	2.158
20:40:56.393	3.39	2.097
20:40:56.427	3.39	1.921
20:40:56.460	3.39	1.824
20:40:56.493	3.39	1.761
20:40:56.527	3.39	1.710
20:40:56.560	3.39	1.674
20:40:56.593	3.39	1.660
20:40:56.627	3.39	1.682
20:40:56.660	3.39	1.700
20:40:56.693	3.39	1.726
20:40:56.727	3.39	1.865
20:40:56.760	3.39	2.321
20:40:56.793	3.39	2.714
20:40:56.827	3.39	2.862
20:40:56.860	3.39	2.785
20:40:56.893	3.39	2.631
20:40:56.927	3.39	2.580
20:40:56.960	3.39	2.357
20:40:56.993	3.39	2.135
20:40:57.027	3.39	1.952
20:40:57.060	3.39	1.829
20:40:57.093	3.39	1.741
20:40:57.127	3.39	1.684
20:40:57.160	3.39	1.636
20:40:57.193	3.39	1.602
20:40:57.227	3.39	1.613
20:40:57.260	3.39	1.650
20:40:57.293	3.39	1.690
20:40:57.327	3.39	1.736
20:40:57.360	3.39	1.778
20:40:57.393	3.38	1.927
20:40:57.427	3.39	2.378
20:40:57.460	3.39	2.496
20:40:57.493	3.38	2.721
20:40:57.527	3.38	2.675
20:40:57.560	3.39	2.533
20:40:57.593	3.39	2.378
20:40:57.627	3.38	2.229
20:40:57.660	3.39	2.072
20:40:57.693	3.38	1.939
20:40:57.727	3.38	1.854
20:40:57.760	3.38	1.799
20:40:57.793	3.38	1.749
20:40:57.827	3.38	1.702
20:40:57.860	3.38	1.688
20:40:57.893	3.38	1.685
20:40:57.927	3.38	1.698
20:40:57.960	3.38	1.746
20:40:57.993	3.38	1.796
20:40:58.027	3.38	2.235
20:40:58.060	3.38	2.619
20:40:58.093	3.38	2.739
20:40:58.127	3.38	2.653
20:40:58.160	3.38	2.501
20:40:58.193	3.38	2.348
20:40:58.227	3.38	2.176
20:40:58.260	3.37	2.011
20:40:58.293	3.38	1.898
20:40:58.327	3.38	1.825
20:40:58.360	3.37	1.781
20:40:58.393	3.37	1.741
20:40:58.427	3.37	1.706
20:40:58.460	3.37	1.698
20:40:58.493	3.38	1.701
20:40:58.527	3.38	1.706
20:40:58.560	3.37	1.747
20:40:58.593	3.37	1.895
20:40:58.627	3.37	2.348
20:40:58.660	3.37	2.741
20:40:58.693	3.38	2.854
20:40:58.727	3.37	2.751
20:40:58.760	3.37	2.573
20:40:58.793	3.37	2.404
20:40:58.827	3.37	2.229
20:40:58.860	3.37	2.036
20:40:58.893	3.37	1.888
20:40:58.927	3.37	1.792
20:40:58.960	3.37	1.732
20:40:58.993	3.37	1.684
20:40:59.027	3.37	1.647
20:40:59.060	3.37	1.640
20:40:59.093	3.37	1.639
20:40:59.127	3.37	1.668
20:40:59.160	3.37	1.704
20:40:59.193	3.37	1.753
20:40:59.227	3.37	1.843
20:40:59.260	3.37	2.314
20:40:59.293	3.37	2.768
20:40:59.327	3.37	2.932
20:40:59.360	3.37	2.845
20:40:59.393	3.37	2.656
20:40:59.427	3.37	2.475
20:40:59.460	3.37	2.306
20:40:59.493	3.37	2.128
20:40:59.527	3.37	1.963
20:40:59.560	3.37	1.851
20:40:59.593	3.37	1.830
20:40:59.627	3.37	1.770
20:40:59.660	3.37	1.712
20:40:59.693	3.37	1.669
20:40:59.727	3.37	1.666
20:40:59.760	3.37	1.676
20:40:59.793	3.37	1.704
20:40:59.827	3.37	1.750
20:40:59.860	3.37	1.793
20:40:59.893	3.37	2.091
20:40:59.927	3.37	2.595
20:40:59.960	3.37	2.870
20:40:59.993	3.37	2.844
20:41:0.027	3.37	2.675
20:41:0.060	3.37	2.475
20:41:0.093	3.37	2.301
20:41:0.127	3.37	2.248
20:41:0.160	3.37	2.031
20:41:0.193	3.37	1.887
20:41:0.227	3.37	1.818
20:41:0.260	3.37	1.763
20:41:0.293	3.37	1.712
20:41:0.327	3.37	1.678
20:41:0.360	3.37	1.654
20:41:0.393	3.37	1.629
20:41:0.427	3.37	1.604
20:41:0.460	3.37	1.607
20:41:0.493	3.37	1.641
20:41:0.527	3.37	1.802
20:41:0.560	3.37	2.438
20:41:0.593	3.37	2.761
20:41:0.627	3.37	2.721
20:41:0.660	3.37	2.658
20:41:0.693	3.37	2.375
20:41:0.727	3.37	2.189
20:41:0.760	3.36	2.060
20:41:0.793	3.37	1.955
20:41:0.827	3.37	1.910
20:41:0.860	3.36	1.924
20:41:0.893	3.37	1.929
20:41:0.927	3.37	1.909
20:41:0.960	3.37	1.892
20:41:0.993	3.37	1.873
20:41:1.027	3.36	1.868
20:41:1.060	3.37	1.881
20:41:1.093	3.37	1.898
20:41:1.127	3.37	2.131
20:41:1.160	3.36	2.624
20:41:1.193	3.36	2.684
20:41:1.227	3.36	2.650
20:41:1.260	3.35	2.448
20:41:1.293	3.34	2.221
20:41:1.327	3.34	2.032
20:41:1.360	3.33	1.866
20:41:1.393	3.32	1.748
20:41:1.427	3.32	1.710
20:41:1.460	3.31	1.744
20:41:1.493	3.30	1.780
20:41:1.527	3.29	1.774
20:41:1.560	3.29	1.769
20:41:1.593	3.29	1.794
20:41:1.627	3.27	1.870
20:41:1.660	3.27	1.968
20:41:1.693	3.25	2.055
20:41:1.727	3.24	2.132
20:41:1.760	3.22	2.748
20:41:1.793	3.21	3.078
20:41:1.827	3.19	3.048
20:41:1.860	3.19	2.835
20:41:1.893	3.18	2.606
20:41:1.927	3.17	2.405
20:41:1.960	3.17	2.241
20:41:1.993	3.17	2.070
20:41:2.027	3.17	1.934
20:41:2.060	3.17	1.836
20:41:2.093	3.17	1.770
20:41:2.127	3.19	1.715
20:41:2.160	3.21	1.670
20:41:2.193	3.24	1.648
20:41:2.227	3.27	1.642
20:41:2.260	3.27	1.646
20:41:2.293	3.29	1.674
20:41:2.327	3.31	1.686
20:41:2.360	3.32	1.719
20:41:2.393	3.33	2.140
20:41:2.427	3.34	2.607
20:41:2.460	3.34	2.798
20:41:2.493	3.34	2.745
20:41:2.527	3.34	2.577
20:41:2.560	3.34	2.405
20:41:2.593	3.34	2.275
20:41:2.627	3.34	2.114
20:41:2.660	3.34	1.948
20:41:2.693	3.35	1.838
20:41:2.727	3.35	1.775
20:41:2.760	3.35	1.721
20:41:2.793	3.35	1.705
20:41:2.827	3.35	1.657
20:41:2.860	3.35	1.630
20:41:2.893	3.35	1.641
20:41:2.927	3.36	1.672
20:41:2.960	3.36	1.708
20:41:2.993	3.36	1.757
20:41:3.027	3.36	2.050
20:41:3.060	3.36	2.567
20:41:3.093	3.36	2.843
20:41:3.127	3.36	2.837
20:41:3.160	3.36	2.671
20:41:3.193	3.36	2.472
20:41:3.227	3.36	2.301
20:41:3.260	3.36	2.135
20:41:3.293	3.36	1.982
20:41:3.327	3.36	1.953
20:41:3.360	3.36	1.861
20:41:3.393	3.37	1.804
20:41:3.427	3.37	1.759
20:41:3.460	3.37	1.719
20:41:3.493	3.37	1.709
20:41:3.527	3.37	1.722
20:41:3.560	3.37	1.740
20:41:3.593	3.37	1.766
20:41:3.627	3.37	1.902
20:41:3.660	3.37	2.332
20:41:3.693	3.37	2.610
20:41:3.727	3.38	2.629
20:41:3.760	3.38	2.473
20:41:3.793	3.39	2.317
20:41:3.827	3.39	2.154
20:41:3.860	3.39	2.090
20:41:3.893	3.39	1.833
20:41:3.927	3.39	1.711
20:41:3.960	3.39	1.681
20:41:3.993	3.39	1.676
20:41:4.027	3.39	1.682
20:41:4.060	3.40	1.699
20:41:4.093	3.40	1.712
20:41:4.127	3.40	1.748
20:41:4.160	3.41	1.808
20:41:4.193	3.41	1.910
20:41:4.227	3.41	2.442
20:41:4.260	3.42	2.857
20:41:4.293	3.42	2.836
20:41:4.327	3.42	2.605
20:41:4.360	3.42	2.372
20:41:4.393	3.42	2.309
20:41:4.427	3.42	2.135
20:41:4.460	3.43	2.029
20:41:4.493	3.43	1.981
20:41:4.527	3.44	1.969
20:41:4.560	3.44	1.964
20:41:4.593	3.44	1.932
20:41:4.627	3.44	1.890
20:41:4.660	3.44	1.872
20:41:4.693	3.44	1.877
20:41:4.727	3.44	1.916
20:41:4.760	3.44	1.991
20:41:4.793	3.45	2.358
20:41:4.827	3.45	2.622
20:41:4.860	3.45	2.598
20:41:4.893	3.46	2.420
20:41:4.927	3.46	2.358
20:41:4.960	3.46	2.189
20:41:4.993	3.46	2.096
20:41:5.027	3.46	2.028
20:41:5.060	3.46	1.990
20:41:5.093	3.46	1.986
20:41:5.127	3.46	1.982
20:41:5.160	3.46	1.970
20:41:5.193	3.47	1.944
20:41:5.227	3.47	1.919
20:41:5.260	3.46	1.917
20:41:5.293	3.47	1.922
20:41:5.327	3.47	1.935
20:41:5.360	3.47	2.163
20:41:5.393	3.47	2.426
20:41:5.427	3.47	2.457
20:41:5.460	3.47	2.417
20:41:5.493	3.47	2.248
20:41:5.527	3.47	2.135
20:41:5.560	3.47	2.077
20:41:5.593	3.47	2.019
20:41:5.627	3.47	1.962
20:41:5.660	3.47	1.941
20:41:5.693	3.47	1.955
20:41:5.727	3.47	1.949
20:41:5.760	3.47	1.928
20:41:5.793	3.47	1.917
20:41:5.827	3.47	1.907
20:41:5.860	3.47	1.894
20:41:5.893	3.47	1.902
20:41:5.927	3.47	1.950
20:41:5.960	3.47	2.232
20:41:5.993	3.47	2.297
20:41:6.027	3.47	2.360
20:41:6.060	3.47	2.272
20:41:6.093	3.47	2.172
20:41:6.127	3.47	2.097
20:41:6.160	3.47	2.035
20:41:6.193	3.47	1.978
20:41:6.227	3.47	1.955
20:41:6.260	3.47	1.960
20:41:6.293	3.47	1.979
20:41:6.327	3.47	1.972
20:41:6.360	3.47	1.945
20:41:6.393	3.47	1.941
20:41:6.427	3.47	1.935
20:41:6.460	3.47	1.931
20:41:6.493	3.47	1.982
20:41:6.527	3.46	2.079
20:41:6.560	3.47	2.353
20:41:6.593	3.46	2.374
20:41:6.627	3.46	2.278
20:41:6.660	3.47	2.170
20:41:6.693	3.46	2.099
20:41:6.727	3.46	2.050
20:41:6.760	3.46	1.995
20:41:6.793	3.46	1.964
20:41:6.827	3.46	1.962
20:41:6.860	3.46	1.950
20:41:6.893	3.46	1.929
20:41:6.927	3.46	1.922
20:41:6.960	3.46	1.911
20:41:6.993	3.45	1.911
20:41:7.027	3.45	1.932
20:41:7.060	3.45	1.957
20:41:7.093	3.45	2.279
20:41:7.127	3.45	2.454
20:41:7.160	3.45	2.404
20:41:7.193	3.45	2.277
20:41:7.227	3.45	2.180
20:41:7.260	3.44	2.113
20:41:7.293	3.45	2.053
20:41:7.327	3.44	2.006
20:41:7.360	3.44	1.977
20:41:7.393	3.44	1.967
20:41:7.427	3.44	1.964
20:41:7.460	3.44	1.951
20:41:7.493	3.44	1.922
20:41:7.527	3.44	1.916
20:41:7.560	3.44	1.925
20:41:7.593	3.44	1.927
20:41:7.627	3.44	1.955
20:41:7.660	3.44	2.131
20:41:7.693	3.44	2.400
20:41:7.727	3.44	2.489
20:41:7.760	3.44	2.419
20:41:7.793	3.44	2.295
20:41:7.827	3.44	2.195
20:41:7.860	3.44	2.129
20:41:7.893	3.43	2.053
20:41:7.927	3.43	1.971
20:41:7.960	3.43	1.922
20:41:7.993	3.43	1.909
20:41:8.027	3.43	1.905
20:41:8.060	3.43	1.899
20:41:8.093	3.43	1.886
20:41:8.127	3.43	1.885
20:41:8.160	3.43	1.895
20:41:8.193	3.43	1.907
20:41:8.227	3.43	1.924
20:41:8.260	3.43	1.943
20:41:8.293	3.43	1.953
20:41:8.327	3.43	2.150
20:41:8.360	3.43	2.452
20:41:8.393	3.43	2.523
20:41:8.427	3.43	2.401
20:41:8.460	3.42	2.263
20:41:8.493	3.43	2.158
20:41:8.527	3.42	2.090
20:41:8.560	3.42	2.029
20:41:8.593	3.42	1.982
20:41:8.627	3.42	1.955
20:41:8.660	3.42	1.956
20:41:8.693	3.42	1.957
20:41:8.727	3.42	1.936
20:41:8.760	3.42	1.921
20:41:8.793	3.42	1.920
20:41:8.827	3.42	1.918
20:41:8.860	3.42	1.926
20:41:8.893	3.42	1.943
20:41:8.927	3.42	2.064
20:41:8.960	3.42	2.333
20:41:8.993	3.42	2.462
20:41:9.027	3.42	2.399
20:41:9.060	3.42	2.273
20:41:9.093	3.42	2.173
20:41:9.127	3.41	2.103
20:41:9.160	3.41	2.037
20:41:9.193	3.41	2.022
20:41:9.227	3.41	1.983
20:41:9.260	3.42	1.971
20:41:9.293	3.41	1.960
20:41:9.327	3.41	1.930
20:41:9.360	3.41	1.900
20:41:9.393	3.41	1.900
20:41:9.427	3.40	1.901
20:41:9.460	3.40	1.915
20:41:9.493	3.40	1.939
20:41:9.527	3.40	2.099
20:41:9.560	3.40	2.403
20:41:9.593	3.40	2.530
20:41:9.627	3.40	2.460
20:41:9.660	3.41	2.319
20:41:9.693	3.40	2.204
20:41:9.727	3.40	2.180
20:41:9.760	3.40	2.082
20:41:9.793	3.40	2.009
20:41:9.827	3.40	1.964
20:41:9.860	3.40	1.940
20:41:9.893	3.40	1.927
20:41:9.927	3.39	1.917
20:41:9.960	3.39	1.900
20:41:9.993	3.39	1.905
20:41:10.027	3.40	1.925
20:41:10.060	3.39	1.936
20:41:10.093	3.39	1.934
20:41:10.127	3.39	2.055
20:41:10.160	3.39	2.361
20:41:10.193	3.39	2.528
20:41:10.227	3.39	2.490
20:41:10.260	3.39	2.447
20:41:10.293	3.39	2.271
20:41:10.327	3.39	2.159
20:41:10.360	3.39	2.073
20:41:10.393	3.39	1.988
20:41:10.427	3.39	1.940
20:41:10.460	3.39	1.920
20:41:10.493	3.39	1.901
20:41:10.527	3.39	1.885
20:41:10.560	3.39	1.865
20:41:10.593	3.39	1.846
20:41:10.627	3.39	1.850
20:41:10.660	3.39	1.870
20:41:10.693	3.39	1.882
20:41:10.727	3.39	1.904
20:41:10.760	3.39	2.123
20:41:10.793	3.39	2.237
20:41:10.827	3.39	2.473
20:41:10.860	3.39	2.450
20:41:10.893	3.39	2.319
20:41:10.927	3.39	2.201
20:41:10.960	3.39	2.126
20:41:10.993	3.39	2.040
20:41:11.027	3.39	1.949
20:41:11.060	3.39	1.903
20:41:11.093	3.39	1.878
20:41:11.127	3.39	1.857
20:41:11.160	3.39	1.843
20:41:11.193	3.39	1.828
20:41:11.227	3.39	1.828
20:41:11.260	3.39	1.848
20:41:11.293	3.39	1.858
20:41:11.327	3.39	1.862
20:41:11.360	3.39	1.900
20:41:11.393	3.39	2.239
20:41:11.427	3.39	2.559
20:41:11.460	3.39	2.613
20:41:11.493	3.39	2.481
20:41:11.527	3.39	2.309
20:41:11.560	3.39	2.188
20:41:11.593	3.39	2.090
20:41:11.627	3.38	1.997
20:41:11.660	3.38	1.941
20:41:11.693	3.38	1.933
20:41:11.727	3.39	1.932
20:41:11.760	3.39	1.920
20:41:11.793	3.38	1.898
20:41:11.827	3.39	1.866
20:41:11.860	3.39	1.862
20:41:11.893	3.39	1.864
20:41:11.927	3.38	1.870
20:41:11.960	3.38	1.988
20:41:11.993	3.39	2.380
20:41:12.027	3.38	2.602
20:41:12.060	3.38	2.576
20:41:12.093	3.38	2.436
20:41:12.127	3.38	2.278
20:41:12.160	3.38	2.152
20:41:12.193	3.38	2.054
20:41:12.227	3.38	1.965
20:41:12.260	3.38	1.912
20:41:12.293	3.38	1.910
20:41:12.327	3.37	1.898
20:41:12.360	3.38	1.859
20:41:12.393	3.38	1.851
20:41:12.427	3.38	1.828
20:41:12.460	3.38	1.818
20:41:12.493	3.37	1.825
20:41:12.527	3.37	1.856
20:41:12.560	3.38	2.099
20:41:12.593	3.38	2.500
20:41:12.627	3.37	2.675
20:41:12.660	3.38	2.616
20:41:12.693	3.37	2.455
20:41:12.727	3.37	2.302
20:41:12.760	3.37	2.190
20:41:12.793	3.37	2.094
20:41:12.827	3.37	2.000
20:41:12.860	3.37	1.920
20:41:12.893	3.37	1.880
20:41:12.927	3.37	1.871
20:41:12.960	3.37	1.822
20:41:12.993	3.37	1.786
20:41:13.027	3.37	1.783
20:41:13.060	3.37	1.792
20:41:13.093	3.37	1.813
20:41:13.127	3.37	1.843
20:41:13.160	3.37	1.866
20:41:13.193	3.37	2.040
20:41:13.227	3.37	2.495
20:41:13.260	3.37	2.729
20:41:13.293	3.37	2.692
20:41:13.327	3.37	2.528
20:41:13.360	3.37	2.345
20:41:13.393	3.37	2.191
20:41:13.427	3.37	2.066
20:41:13.460	3.37	2.029
20:41:13.493	3.37	1.897
20:41:13.527	3.37	1.843
20:41:13.560	3.37	1.818
20:41:13.593	3.37	1.767
20:41:13.627	3.37	1.720
20:41:13.660	3.37	1.684
20:41:13.693	3.37	1.684
20:41:13.727	3.37	1.750
20:41:13.760	3.37	1.839
20:41:13.793	3.37	1.916
20:41:13.827	3.38	2.232
20:41:13.860	3.37	2.635
20:41:13.893	3.38	2.740
20:41:13.927	3.38	2.617
20:41:13.960	3.39	2.442
20:41:13.993	3.39	2.392
20:41:14.027	3.39	2.223
20:41:14.060	3.41	2.103
20:41:14.093	3.42	2.015
20:41:14.127	3.42	1.967
20:41:14.160	3.43	1.946
20:41:14.193	3.44	1.902
20:41:14.227	3.44	1.849
20:41:14.260	3.44	1.818
20:41:14.293	3.45	1.802
20:41:14.327	3.45	1.795
20:41:14.360	3.46	1.806
20:41:14.393	3.47	1.947
20:41:14.427	3.47	2.355
20:41:14.460	3.47	2.615
20:41:14.493	3.48	2.607
20:41:14.527	3.48	2.558
20:41:14.560	3.49	2.365
20:41:14.593	3.49	2.224
20:41:14.627	3.50	2.101
20:41:14.660	3.50	2.003
20:41:14.693	3.51	1.946
20:41:14.727	3.52	1.913
20:41:14.760	3.52	1.836
20:41:14.793	3.53	1.738
20:41:14.827	3.54	1.680
20:41:14.860	3.54	1.603
20:41:14.893	3.54	1.600
20:41:14.927	3.54	1.654
20:41:14.960	3.54	1.764
20:41:14.993	3.55	1.942
20:41:15.027	3.55	2.518
20:41:15.060	3.55	2.631
20:41:15.093	3.55	2.759
20:41:15.127	3.55	2.612
20:41:15.160	3.55	2.427
20:41:15.193	3.55	2.282
20:41:15.227	3.56	2.141
20:41:15.260	3.56	2.013
20:41:15.293	3.56	1.946
20:41:15.327	3.57	1.915
20:41:15.360	3.57	1.873
20:41:15.393	3.57	1.783
20:41:15.427	3.57	1.646
20:41:15.460	3.57	1.558
20:41:15.493	3.57	1.557
20:41:15.527	3.57	1.597
20:41:15.560	3.57	1.666
20:41:15.593	3.57	1.703
20:41:15.627	3.57	2.204
20:41:15.660	3.57	2.681
20:41:15.693	3.58	2.872
20:41:15.727	3.58	2.789
20:41:15.760	3.58	2.590
20:41:15.793	3.58	2.401
20:41:15.827	3.58	2.216
20:41:15.860	3.58	2.046
20:41:15.893	3.58	1.915
20:41:15.927	3.58	1.849
20:41:15.960	3.58	1.821
20:41:15.993	3.59	1.796
20:41:16.027	3.59	1.754
20:41:16.060	3.59	1.712
20:41:16.093	3.59	1.690
20:41:16.127	3.59	1.691
20:41:16.160	3.59	1.704
20:41:16.193	3.58	1.823
20:41:16.227	3.59	2.347
20:41:16.260	3.59	2.733
20:41:16.293	3.59	2.807
20:41:16.327	3.59	2.669
20:41:16.360	3.59	2.465
20:41:16.393	3.59	2.274
20:41:16.427	3.59	2.105
20:41:16.460	3.59	1.931
20:41:16.493	3.59	1.825
20:41:16.527	3.59	1.793
20:41:16.560	3.58	1.793
20:41:16.593	3.59	1.794
20:41:16.627	3.58	1.791
20:41:16.660	3.58	1.791
20:41:16.693	3.58	1.799
20:41:16.727	3.58	1.808
20:41:16.760	3.58	1.805
20:41:16.793	3.58	1.813
20:41:16.827	3.58	1.838
20:41:16.860	3.57	2.086
20:41:16.893	3.57	2.619
20:41:16.927	3.57	2.915
20:41:16.960	3.57	2.891
20:41:16.993	3.57	2.697
20:41:17.027	3.57	2.475
20:41:17.060	3.57	2.298
20:41:17.093	3.57	2.130
20:41:17.127	3.57	1.967
20:41:17.160	3.57	1.854
20:41:17.193	3.57	1.835
20:41:17.227	3.57	1.776
20:41:17.260	3.57	1.724
20:41:17.293	3.57	1.674
20:41:17.327	3.57	1.660
20:41:17.360	3.57	1.657
20:41:17.393	3.56	1.670
20:41:17.427	3.56	1.707
20:41:17.460	3.56	1.758
20:41:17.493	3.55	1.804
20:41:17.527	3.55	2.014
20:41:17.560	3.55	2.580
20:41:17.593	3.55	2.885
20:41:17.627	3.56	2.878
20:41:17.660	3.56	2.690
20:41:17.693	3.55	2.468
20:41:17.727	3.56	2.401
20:41:17.760	3.56	2.173
20:41:17.793	3.57	1.989
20:41:17.827	3.57	1.855
20:41:17.860	3.57	1.808
20:41:17.893	3.57	1.783
20:41:17.927	3.58	1.752
20:41:17.960	3.58	1.724
20:41:17.993	3.59	1.699
20:41:18.027	3.60	1.696
20:41:18.060	3.60	1.716
20:41:18.093	3.60	1.749
20:41:18.127	3.61	1.885
20:41:18.160	3.61	2.390
20:41:18.193	3.62	2.734
20:41:18.227	3.62	2.770
20:41:18.260	3.62	2.716
20:41:18.293	3.63	2.453
20:41:18.327	3.64	2.248
20:41:18.360	3.64	2.073
20:41:18.393	3.65	1.934
20:41:18.427	3.65	1.859
20:41:18.460	3.66	1.845
20:41:18.493	3.66	1.833
20:41:18.527	3.67	1.791
20:41:18.560	3.67	1.757
20:41:18.593	3.67	1.733
20:41:18.627	3.68	1.723
20:41:18.660	3.68	1.745
20:41:18.693	3.69	1.797
20:41:18.727	3.69	2.236
20:41:18.760	3.70	2.690
20:41:18.793	3.70	2.738
20:41:18.827	3.70	2.694
20:41:18.860	3.70	2.514
20:41:18.893	3.70	2.341
20:41:18.927	3.71	2.174
20:41:18.960	3.71	2.017
20:41:18.993	3.71	1.900
20:41:19.027	3.72	1.837
20:41:19.060	3.72	1.808
20:41:19.093	3.72	1.773
20:41:19.127	3.73	1.719
20:41:19.160	3.73	1.687
20:41:19.193	3.73	1.687
20:41:19.227	3.73	1.694
20:41:19.260	3.73	1.721
20:41:19.293	3.73	1.790
20:41:19.327	3.73	1.959
20:41:19.360	3.73	2.589
20:41:19.393	3.73	2.805
20:41:19.427	3.73	2.716
20:41:19.460	3.73	2.521
20:41:19.493	3.73	2.350
20:41:19.527	3.73	2.195
20:41:19.560	3.74	2.031
20:41:19.593	3.73	1.893
20:41:19.627	3.73	1.801
20:41:19.660	3.74	1.755
20:41:19.693	3.74	1.734
20:41:19.727	3.74	1.704
20:41:19.760	3.74	1.676
20:41:19.793	3.74	1.680
20:41:19.827	3.73	1.699
20:41:19.860	3.73	1.711
20:41:19.893	3.74	1.782
20:41:19.927	3.74	2.218
20:41:19.960	3.73	2.688
20:41:19.993	3.73	2.848
20:41:20.027	3.73	2.758
20:41:20.060	3.73	2.572
20:41:20.093	3.73	2.401
20:41:20.127	3.73	2.249
20:41:20.160	3.73	2.084
20:41:20.193	3.73	1.956
20:41:20.227	3.73	1.892
20:41:20.260	3.73	1.852
20:41:20.293	3.73	1.803
20:41:20.327	3.73	1.752
20:41:20.360	3.73	1.703
20:41:20.393	3.73	1.696
20:41:20.427	3.73	1.689
20:41:20.460	3.73	1.700
20:41:20.493	3.72	1.916
20:41:20.527	3.73	2.430
20:41:20.560	3.72	2.754
20:41:20.593	3.72	2.780
20:41:20.627	3.71	2.634
20:41:20.660	3.71	2.434
20:41:20.693	3.71	2.264
20:41:20.727	3.71	2.120
20:41:20.760	3.70	1.956
20:41:20.793	3.70	1.839
20:41:20.827	3.70	1.791
20:41:20.860	3.70	1.755
20:41:20.893	3.70	1.713
20:41:20.927	3.70	1.701
20:41:20.960	3.70	1.671
20:41:20.993	3.69	1.674
20:41:21.027	3.69	1.701
20:41:21.060	3.69	1.739
20:41:21.093	3.68	1.953
20:41:21.127	3.68	2.480
20:41:21.160	3.68	2.733
20:41:21.193	3.67	2.697
20:41:21.227	3.67	2.538
20:41:21.260	3.67	2.379
20:41:21.293	3.67	2.248
20:41:21.327	3.67	2.127
20:41:21.360	3.66	2.002
20:41:21.393	3.66	1.909
20:41:21.427	3.66	1.860
20:41:21.460	3.66	1.850
20:41:21.493	3.66	1.796
20:41:21.527	3.65	1.749
20:41:21.560	3.65	1.742
20:41:21.593	3.65	1.744
20:41:21.627	3.65	1.760
20:41:21.660	3.65	1.786
20:41:21.693	3.65	1.814
20:41:21.727	3.64	1.869
20:41:21.760	3.64	2.327
20:41:21.793	3.64	2.730
20:41:21.827	3.64	2.794
20:41:21.860	3.63	2.645
20:41:21.893	3.63	2.445
20:41:21.927	3.62	2.283
20:41:21.960	3.62	2.165
20:41:21.993	3.62	2.125
20:41:22.027	3.62	1.969
20:41:22.060	3.62	1.899
20:41:22.093	3.62	1.874
20:41:22.127	3.62	1.850
20:41:22.160	3.61	1.824
20:41:22.193	3.61	1.792
20:41:22.227	3.61	1.776
20:41:22.260	3.61	1.788
20:41:22.293	3.61	1.817
20:41:22.327	3.60	1.851
20:41:22.360	3.60	2.189
20:41:22.393	3.60	2.562
20:41:22.427	3.60	2.662
20:41:22.460	3.60	2.550
20:41:22.493	3.60	2.380
20:41:22.527	3.60	2.330
20:41:22.560	3.59	2.169
20:41:22.593	3.59	2.034
20:41:22.627	3.59	1.951
20:41:22.660	3.58	1.930
20:41:22.693	3.58	1.928
20:41:22.727	3.58	1.905
20:41:22.760	3.58	1.863
20:41:22.793	3.58	1.840
20:41:22.827	3.57	1.821
20:41:22.860	3.57	1.821
20:41:22.893	3.57	1.838
20:41:22.927	3.57	1.975
20:41:22.960	3.57	2.381
20:41:22.993	3.57	2.649
20:41:23.027	3.57	2.639
20:41:23.060	3.57	2.588
20:41:23.093	3.57	2.386
20:41:23.127	3.57	2.249
20:41:23.160	3.56	2.123
20:41:23.193	3.56	2.020
20:41:23.227	3.56	1.951
20:41:23.260	3.56	1.912
20:41:23.293	3.55	1.880
20:41:23.327	3.55	1.836
20:41:23.360	3.55	1.787
20:41:23.393	3.55	1.773
20:41:23.427	3.55	1.771
20:41:23.460	3.55	1.788
20:41:23.493	3.55	1.819
20:41:23.527	3.54	1.851
20:41:23.560	3.54	2.040
20:41:23.593	3.54	2.188
20:41:23.627	3.54	2.590
20:41:23.660	3.54	2.638
20:41:23.693	3.54	2.513
20:41:23.727	3.54	2.372
20:41:23.760	3.54	2.251
20:41:23.793	3.54	2.144
20:41:23.827	3.54	2.029
20:41:23.860	3.54	1.926
20:41:23.893	3.54	1.875
20:41:23.927	3.54	1.842
20:41:23.960	3.53	1.796
20:41:23.993	3.53	1.750
20:41:24.027	3.53	1.731
20:41:24.060	3.53	1.728
20:41:24.093	3.53	1.739
20:41:24.127	3.53	1.749
20:41:24.160	3.53	1.846
20:41:24.193	3.52	2.266
20:41:24.227	3.53	2.601
20:41:24.260	3.52	2.667
20:41:24.293	3.52	2.553
20:41:24.327	3.52	2.397
20:41:24.360	3.52	2.252
20:41:24.393	3.52	2.135
20:41:24.427	3.52	2.018
20:41:24.460	3.52	1.919
20:41:24.493	3.52	1.870
20:41:24.527	3.52	1.839
20:41:24.560	3.52	1.800
20:41:24.593	3.52	1.765
20:41:24.627	3.52	1.745
20:41:24.660	3.52	1.739
20:41:24.693	3.51	1.742
20:41:24.727	3.51	1.778
20:41:24.760	3.51	1.809
20:41:24.793	3.51	1.847
20:41:24.827	3.51	1.891
20:41:24.860	3.51	2.230
20:41:24.893	3.50	2.699
20:41:24.927	3.51	2.860
20:41:24.960	3.51	2.735
20:41:24.993	3.50	2.510
20:41:25.027	3.50	2.306
20:41:25.060	3.50	2.160
20:41:25.093	3.50	2.042
20:41:25.127	3.50	1.951
20:41:25.160	3.50	1.905
20:41:25.193	3.50	1.898
20:41:25.227	3.50	1.877
20:41:25.260	3.50	1.835
20:41:25.293	3.49	1.796
20:41:25.327	3.49	1.788
20:41:25.360	3.50	1.797
20:41:25.393	3.49	1.804
20:41:25.427	3.49	1.824
20:41:25.460	3.49	2.025
20:41:25.493	3.49	2.452
20:41:25.527	3.49	2.703
20:41:25.560	3.49	2.697
20:41:25.593	3.49	2.526
20:41:25.627	3.49	2.344
20:41:25.660	3.49	2.203
20:41:25.693	3.49	2.074
20:41:25.727	3.49	2.042
20:41:25.760	3.49	1.946
20:41:25.793	3.49	1.881
20:41:25.827	3.49	1.789
20:41:25.860	3.49	1.697
20:41:25.893	3.49	1.619
20:41:25.927	3.49	1.549
20:41:25.960	3.49	1.533
20:41:25.993	3.49	1.572
20:41:26.027	3.48	1.659
20:41:26.060	3.48	1.950
20:41:26.093	3.48	2.689
20:41:26.127	3.48	3.083
20:41:26.160	3.48	3.034
20:41:26.193	3.48	2.786
20:41:26.227	3.48	2.549
20:41:26.260	3.48	2.489
20:41:26.293	3.48	2.275
20:41:26.327	3.48	2.082
20:41:26.360	3.47	1.964
20:41:26.393	3.48	1.905
20:41:26.427	3.47	1.851
20:41:26.460	3.48	1.798
20:41:26.493	3.47	1.742
20:41:26.527	3.47	1.696
20:41:26.560	3.47	1.693
20:41:26.593	3.47	1.723
20:41:26.627	3.47	1.757
20:41:26.660	3.47	1.791
20:41:26.693	3.47	1.836
20:41:26.727	3.47	2.143
20:41:26.760	3.47	2.627
20:41:26.793	3.47	2.710
20:41:26.827	3.47	2.766
20:41:26.860	3.47	2.630
20:41:26.893	3.47	2.475
20:41:26.927	3.47	2.330
20:41:26.960	3.47	2.204
20:41:26.993	3.47	2.053
20:41:27.027	3.47	1.934
20:41:27.060	3.47	1.855
20:41:27.093	3.47	1.809
20:41:27.127	3.47	1.757
20:41:27.160	3.46	1.696
20:41:27.193	3.47	1.655
20:41:27.227	3.47	1.645
20:41:27.260	3.46	1.628
20:41:27.293	3.47	1.612
20:41:27.327	3.46	1.618
20:41:27.360	3.47	1.655
20:41:27.393	3.47	2.091
20:41:27.427	3.46	2.599
20:41:27.460	3.46	2.757
20:41:27.493	3.45	2.640
20:41:27.527	3.45	2.435
20:41:27.560	3.45	2.264
20:41:27.593	3.45	2.141
20:41:27.627	3.44	2.017
20:41:27.660	3.45	1.911
20:41:27.693	3.44	1.852
20:41:27.727	3.45	1.838
20:41:27.760	3.44	1.820
20:41:27.793	3.45	1.809
20:41:27.827	3.45	1.798
20:41:27.860	3.46	1.791
20:41:27.893	3.46	1.784
20:41:27.927	3.45	1.791
20:41:27.960	3.45	1.812
20:41:27.993	3.45	1.837
20:41:28.027	3.45	1.872
20:41:28.060	3.44	1.986
20:41:28.093	3.44	2.561
20:41:28.127	3.45	2.942
20:41:28.160	3.44	2.938
20:41:28.193	3.44	2.718
20:41:28.227	3.44	2.469
20:41:28.260	3.44	2.257
20:41:28.293	3.44	2.072
20:41:28.327	3.44	1.935
20:41:28.360	3.44	1.864
20:41:28.393	3.44	1.857
20:41:28.427	3.44	1.844
20:41:28.460	3.44	1.818
20:41:28.493	3.44	1.778
20:41:28.527	3.44	1.743
20:41:28.560	3.44	1.728
20:41:28.593	3.44	1.733
20:41:28.627	3.44	1.762
20:41:28.660	3.44	1.966
20:41:28.693	3.43	2.502
20:41:28.727	3.44	2.811
20:41:28.760	3.44	2.803
20:41:28.793	3.44	2.599
20:41:28.827	3.44	2.367
20:41:28.860	3.44	2.181
20:41:28.893	3.44	2.011
20:41:28.927	3.44	1.977
20:41:28.960	3.44	1.897
20:41:28.993	3.44	1.852
20:41:29.027	3.44	1.815
20:41:29.060	3.44	1.772
20:41:29.093	3.44	1.729
20:41:29.127	3.44	1.706
20:41:29.160	3.44	1.717
20:41:29.193	3.44	1.740
20:41:29.227	3.44	1.838
20:41:29.260	3.44	2.390
20:41:29.293	3.44	2.812
20:41:29.327	3.44	2.899
20:41:29.360	3.44	2.742
20:41:29.393	3.44	2.504
20:41:29.427	3.44	2.305
20:41:29.460	3.44	2.249
20:41:29.493	3.44	2.038
20:41:29.527	3.44	1.894
20:41:29.560	3.44	1.824
20:41:29.593	3.44	1.791
20:41:29.627	3.44	1.750
20:41:29.660	3.44	1.715
20:41:29.693	3.44	1.690
20:41:29.727	3.43	1.688
20:41:29.760	3.43	1.706
20:41:29.793	3.44	1.733
20:41:29.827	3.44	1.795
20:41:29.860	3.43	2.257
20:41:29.893	3.43	2.727
20:41:29.927	3.43	2.888
20:41:29.960	3.43	2.789
20:41:29.993	3.44	2.723
20:41:30.027	3.43	2.460
20:41:30.060	3.43	2.254
20:41:30.093	3.43	2.067
20:41:30.127	3.43	1.900
20:41:30.160	3.43	1.797
20:41:30.193	3.43	1.747
20:41:30.227	3.43	1.711
20:41:30.260	3.42	1.673
20:41:30.293	3.43	1.652
20:41:30.327	3.42	1.647
20:41:30.360	3.42	1.662
20:41:30.393	3.42	1.695
20:41:30.427	3.43	1.728
20:41:30.460	3.42	1.830
20:41:30.493	3.42	2.366
20:41:30.527	3.43	2.489
20:41:30.560	3.42	2.698
20:41:30.593	3.42	2.611
20:41:30.627	3.42	2.429
20:41:30.660	3.42	2.253
20:41:30.693	3.42	2.098
20:41:30.727	3.42	1.955
20:41:30.760	3.42	1.870
20:41:30.793	3.42	1.852
20:41:30.827	3.42	1.858
20:41:30.860	3.42	1.818
20:41:30.893	3.42	1.775
20:41:30.927	3.42	1.748
20:41:30.960	3.42	1.738
20:41:30.993	3.42	1.750
20:41:31.027	3.42	1.784
20:41:31.060	3.42	1.873
20:41:31.093	3.42	2.450
20:41:31.127	3.42	2.787
20:41:31.160	3.42	2.792
20:41:31.193	3.42	2.610
20:41:31.227	3.42	2.403
20:41:31.260	3.42	2.230
20:41:31.293	3.42	2.062
20:41:31.327	3.42	1.921
20:41:31.360	3.42	1.848
20:41:31.393	3.42	1.816
20:41:31.427	3.42	1.790
20:41:31.460	3.42	1.745
20:41:31.493	3.42	1.713
20:41:31.527	3.42	1.704
20:41:31.560	3.42	1.711
20:41:31.593	3.42	1.713
20:41:31.627	3.42	1.756
20:41:31.660	3.42	2.210
20:41:31.693	3.42	2.708
20:41:31.727	3.42	2.906
20:41:31.760	3.42	2.823
20:41:31.793	3.42	2.629
20:41:31.827	3.41	2.445
20:41:31.860	3.42	2.280
20:41:31.893	3.42	2.104
20:41:31.927	3.42	1.934
20:41:31.960	3.42	1.830
20:41:31.993	3.42	1.760
20:41:32.027	3.42	1.712
20:41:32.060	3.41	1.666
20:41:32.093	3.42	1.624
20:41:32.127	3.41	1.622
20:41:32.160	3.41	1.630
20:41:32.193	3.41	1.658
20:41:32.227	3.41	1.706
20:41:32.260	3.41	2.057
20:41:32.293	3.41	2.613
20:41:32.327	3.41	2.933
20:41:32.360	3.41	2.930
20:41:32.393	3.41	2.743
20:41:32.427	3.42	2.542
20:41:32.460	3.41	2.363
20:41:32.493	3.41	2.171
20:41:32.527	3.41	1.956
20:41:32.560	3.41	1.805
20:41:32.593	3.41	1.724
20:41:32.627	3.41	1.676
20:41:32.660	3.40	1.664
20:41:32.693	3.41	1.622
20:41:32.727	3.41	1.600
20:41:32.760	3.40	1.612
20:41:32.793	3.40	1.646
20:41:32.827	3.40	1.689
20:41:32.860	3.40	1.737
20:41:32.893	3.41	1.807
20:41:32.927	3.41	2.274
20:41:32.960	3.40	2.802
20:41:32.993	3.40	3.018
20:41:33.027	3.40	2.924
20:41:33.060	3.40	2.704
20:41:33.093	3.40	2.474
20:41:33.127	3.40	2.285
20:41:33.160	3.41	2.102
20:41:33.193	3.40	2.046
20:41:33.227	3.40	1.864
20:41:33.260	3.41	1.778
20:41:33.293	3.40	1.727
20:41:33.327	3.40	1.669
20:41:33.360	3.40	1.634
20:41:33.393	3.40	1.633
20:41:33.427	3.40	1.639
20:41:33.460	3.40	1.659
20:41:33.493	3.40	1.799
20:41:33.527	3.40	2.309
20:41:33.560	3.40	2.703
20:41:33.593	3.40	2.799
20:41:33.627	3.40	2.658
20:41:33.660	3.39	2.458
20:41:33.693	3.40	2.281
20:41:33.727	3.40	2.224
20:41:33.760	3.40	1.998
20:41:33.793	3.40	1.886
20:41:33.827	3.39	1.844
20:41:33.860	3.40	1.818
20:41:33.893	3.39	1.785
20:41:33.927	3.40	1.754
20:41:33.960	3.39	1.720
20:41:33.993	3.40	1.719
20:41:34.027	3.39	1.731
20:41:34.060	3.39	1.892
20:41:34.093	3.39	2.429
20:41:34.127	3.39	2.865
20:41:34.160	3.39	2.970
20:41:34.193	3.39	2.820
20:41:34.227	3.39	2.579
20:41:34.260	3.40	2.497
20:41:34.293	3.39	2.187
20:41:34.327	3.39	1.932
20:41:34.360	3.39	1.773
20:41:34.393	3.39	1.701
20:41:34.427	3.39	1.668
20:41:34.460	3.39	1.625
20:41:34.493	3.39	1.584
20:41:34.527	3.39	1.574
20:41:34.560	3.39	1.592
20:41:34.593	3.39	1.635
20:41:34.627	3.39	1.702
20:41:34.660	3.39	2.049
20:41:34.693	3.39	2.653
20:41:34.727	3.39	3.008
20:41:34.760	3.39	3.005
20:41:34.793	3.39	2.922
20:41:34.827	3.39	2.611
20:41:34.860	3.39	2.373
20:41:34.893	3.39	2.149
20:41:34.927	3.39	1.936
20:41:34.960	3.39	1.784
20:41:34.993	3.39	1.700
20:41:35.027	3.39	1.659
20:41:35.060	3.39	1.614
20:41:35.093	3.39	1.571
20:41:35.127	3.39	1.564
20:41:35.160	3.39	1.589
20:41:35.193	3.39	1.619
20:41:35.227	3.39	1.668
20:41:35.260	3.39	1.874
20:41:35.293	3.39	2.451
20:41:35.327	3.39	2.590
20:41:35.360	3.39	2.840
20:41:35.393	3.39	2.766
20:41:35.427	3.39	2.571
20:41:35.460	3.39	2.371
20:41:35.493	3.39	2.177
20:41:35.527	3.39	1.976
20:41:35.560	3.39	1.826
20:41:35.593	3.39	1.735
20:41:35.627	3.39	1.672
20:41:35.660	3.38	1.631
20:41:35.693	3.39	1.596
20:41:35.727	3.39	1.580
20:41:35.760	3.39	1.589
20:41:35.793	3.39	1.626
20:41:35.827	3.39	1.670
20:41:35.860	3.39	1.692
20:41:35.893	3.39	1.933
20:41:35.927	3.39	2.525
20:41:35.960	3.39	2.916
20:41:35.993	3.39	2.939
20:41:36.027	3.40	2.750
20:41:36.060	3.40	2.520
20:41:36.093	3.40	2.308
20:41:36.127	3.40	2.105
20:41:36.160	3.40	1.934
20:41:36.193	3.39	1.836
20:41:36.227	3.40	1.800
20:41:36.260	3.40	1.775
20:41:36.293	3.40	1.744
20:41:36.327	3.40	1.698
20:41:36.360	3.40	1.680
20:41:36.393	3.40	1.684
20:41:36.427	3.39	1.711
20:41:36.460	3.39	1.761
20:41:36.493	3.39	2.129
20:41:36.527	3.39	2.669
20:41:36.560	3.40	2.935
20:41:36.593	3.39	2.895
20:41:36.627	3.39	2.673
20:41:36.660	3.39	2.428
20:41:36.693	3.39	2.217
20:41:36.727	3.39	2.022
20:41:36.760	3.39	1.866
20:41:36.793	3.39	1.801
20:41:36.827	3.40	1.777
20:41:36.860	3.40	1.752
20:41:36.893	3.39	1.724
20:41:36.927	3.39	1.713
20:41:36.960	3.39	1.691
20:41:36.993	3.39	1.692
20:41:37.027	3.39	1.713
20:41:37.060	3.39	1.997
20:41:37.093	3.39	2.576
20:41:37.127	3.39	2.923
20:41:37.160	3.39	2.943
20:41:37.193	3.39	2.761
20:41:37.227	3.39	2.531
20:41:37.260	3.39	2.317
20:41:37.293	3.39	2.109
20:41:37.327	3.39	1.912
20:41:37.360	3.39	1.776
20:41:37.393	3.39	1.712
20:41:37.427	3.39	1.676
20:41:37.460	3.39	1.663
20:41:37.493	3.39	1.621
20:41:37.527	3.39	1.614
20:41:37.560	3.39	1.625
20:41:37.593	3.39	1.652
20:41:37.627	3.39	1.780
20:41:37.660	3.39	2.360
20:41:37.693	3.39	2.849
20:41:37.727	3.39	2.996
20:41:37.760	3.39	2.857
20:41:37.793	3.39	2.612
20:41:37.827	3.39	2.364
20:41:37.860	3.39	2.130
20:41:37.893	3.39	1.906
20:41:37.927	3.39	1.751
20:41:37.960	3.39	1.679
20:41:37.993	3.39	1.677
20:41:38.027	3.39	1.686
20:41:38.060	3.39	1.704
20:41:38.093	3.39	1.723
20:41:38.127	3.39	1.724
20:41:38.160	3.39	1.682
20:41:38.193	3.39	1.648
20:41:38.227	3.39	1.687
20:41:38.260	3.39	2.212
20:41:38.293	3.39	2.726
20:41:38.327	3.39	2.976
20:41:38.360	3.39	2.958
20:41:38.393	3.39	2.753
20:41:38.427	3.39	2.460
20:41:38.460	3.39	2.156
20:41:38.493	3.39	1.885
20:41:38.527	3.39	1.835
20:41:38.560	3.39	1.743
20:41:38.593	3.39	1.761
20:41:38.627	3.39	1.807
20:41:38.660	3.39	1.825
20:41:38.693	3.39	1.794
20:41:38.727	3.39	1.729
20:41:38.760	3.39	1.652
20:41:38.793	3.39	1.619
20:41:38.827	3.39	1.912
20:41:38.860	3.39	2.478
20:41:38.893	3.39	2.852
20:41:38.927	3.39	2.941
20:41:38.960	3.39	2.814
20:41:38.993	3.39	2.580
20:41:39.027	3.39	2.312
20:41:39.060	3.39	2.218
20:41:39.093	3.38	1.870
20:41:39.127	3.38	1.718
20:41:39.160	3.39	1.703
20:41:39.193	3.39	1.712
20:41:39.227	3.38	1.732
20:41:39.260	3.39	1.736
20:41:39.293	3.38	1.693
20:41:39.327	3.38	1.630
20:41:39.360	3.39	1.589
20:41:39.393	3.39	1.648
20:41:39.427	3.39	2.196
20:41:39.460	3.39	2.702
20:41:39.493	3.38	2.947
20:41:39.527	3.38	2.963
20:41:39.560	3.39	2.828
20:41:39.593	3.38	2.748
20:41:39.627	3.38	2.358
20:41:39.660	3.38	2.030
20:41:39.693	3.38	1.791
20:41:39.727	3.38	1.665
20:41:39.760	3.38	1.623
20:41:39.793	3.39	1.590
20:41:39.827	3.38	1.574
20:41:39.860	3.39	1.605
20:41:39.893	3.38	1.681
20:41:39.927	3.38	1.750
20:41:39.960	3.38	1.784
20:41:39.993	3.38	1.925
20:41:40.027	3.39	2.371
20:41:40.060	3.38	2.764
20:41:40.093	3.38	2.896
20:41:40.127	3.38	2.874
20:41:40.160	3.38	2.748
20:41:40.193	3.38	2.620
20:41:40.227	3.38	2.394
20:41:40.260	3.38	2.091
20:41:40.293	3.39	1.812
20:41:40.327	3.38	1.634
20:41:40.360	3.39	1.569
20:41:40.393	3.39	1.558
20:41:40.427	3.38	1.571
20:41:40.460	3.39	1.626
20:41:40.493	3.39	1.678
20:41:40.527	3.39	1.688
20:41:40.560	3.39	1.676
20:41:40.593	3.39	1.689
20:41:40.627	3.39	2.132
20:41:40.660	3.39	2.348
20:41:40.693	3.39	2.912
20:41:40.727	3.39	2.983
20:41:40.760	3.39	2.747
20:41:40.793	3.39	2.433
20:41:40.827	3.40	2.175
20:41:40.860	3.40	1.965
20:41:40.893	3.40	1.838
20:41:40.927	3.40	1.785
20:41:40.960	3.40	1.742
20:41:40.993	3.41	1.673
20:41:41.027	3.41	1.587
20:41:41.060	3.41	1.526
20:41:41.093	3.41	1.518
20:41:41.127	3.41	1.543
20:41:41.160	3.41	1.583
20:41:41.193	3.42	1.600
20:41:41.227	3.42	1.718
20:41:41.260	3.42	2.271
20:41:41.293	3.42	2.756
20:41:41.327	3.42	2.937
20:41:41.360	3.42	2.836
20:41:41.393	3.42	2.602
20:41:41.427	3.42	2.356
20:41:41.460	3.42	2.125
20:41:41.493	3.42	1.940
20:41:41.527	3.42	1.826
20:41:41.560	3.42	1.796
20:41:41.593	3.42	1.813
20:41:41.627	3.42	1.819
20:41:41.660	3.43	1.796
20:41:41.693	3.42	1.763
20:41:41.727	3.43	1.755
20:41:41.760	3.43	1.734
20:41:41.793	3.42	1.736
20:41:41.827	3.43	1.748
20:41:41.860	3.43	1.903
20:41:41.893	3.43	2.444
20:41:41.927	3.43	2.774
20:41:41.960	3.43	2.794
20:41:41.993	3.43	2.629
20:41:42.027	3.43	2.422
20:41:42.060	3.43	2.258
20:41:42.093	3.43	2.109
20:41:42.127	3.43	1.992
20:41:42.160	3.43	1.930
20:41:42.193	3.43	1.914
20:41:42.227	3.43	1.895
20:41:42.260	3.43	1.880
20:41:42.293	3.44	1.815
20:41:42.327	3.43	1.773
20:41:42.360	3.43	1.764
20:41:42.393	3.43	1.769
20:41:42.427	3.43	1.786
20:41:42.460	3.43	1.884
20:41:42.493	3.43	2.319
20:41:42.527	3.44	2.615
20:41:42.560	3.44	2.634
20:41:42.593	3.43	2.499
20:41:42.627	3.43	2.354
20:41:42.660	3.43	2.259
20:41:42.693	3.43	2.181
20:41:42.727	3.44	2.079
20:41:42.760	3.44	1.991
20:41:42.793	3.43	1.971
20:41:42.827	3.43	1.912
20:41:42.860	3.44	1.871
20:41:42.893	3.44	1.829
20:41:42.927	3.43	1.801
20:41:42.960	3.44	1.805
20:41:42.993	3.44	1.810
20:41:43.027	3.43	1.818
20:41:43.060	3.43	1.857
20:41:43.093	3.43	2.004
20:41:43.127	3.43	2.442
20:41:43.160	3.43	2.729
20:41:43.193	3.43	2.716
20:41:43.227	3.43	2.535
20:41:43.260	3.43	2.351
20:41:43.293	3.43	2.218
20:41:43.327	3.43	2.182
20:41:43.360	3.43	2.029
20:41:43.393	3.43	1.938
20:41:43.427	3.43	1.897
20:41:43.460	3.42	1.886
20:41:43.493	3.42	1.872
20:41:43.527	3.43	1.842
20:41:43.560	3.43	1.823
20:41:43.593	3.43	1.820
20:41:43.627	3.42	1.823
20:41:43.660	3.42	1.836
20:41:43.693	3.42	1.864
20:41:43.727	3.42	1.917
20:41:43.760	3.42	2.297
20:41:43.793	3.42	2.659
20:41:43.827	3.42	2.686
20:41:43.860	3.42	2.635
20:41:43.893	3.42	2.396
20:41:43.927	3.42	2.227
20:41:43.960	3.42	2.111
20:41:43.993	3.42	2.019
20:41:44.027	3.42	1.936
20:41:44.060	3.42	1.898
20:41:44.093	3.42	1.894
20:41:44.127	3.42	1.879
20:41:44.160	3.42	1.852
20:41:44.193	3.42	1.835
20:41:44.227	3.42	1.820
20:41:44.260	3.42	1.813
20:41:44.293	3.42	1.825
20:41:44.327	3.42	1.849
20:41:44.360	3.42	1.876
20:41:44.393	3.42	1.888
20:41:44.427	3.42	1.967
20:41:44.460	3.42	2.458
20:41:44.493	3.42	2.787
20:41:44.527	3.42	2.774
20:41:44.560	3.41	2.576
20:41:44.593	3.41	2.368
20:41:44.627	3.42	2.211
20:41:44.660	3.41	2.085
20:41:44.693	3.41	1.970
20:41:44.727	3.41	1.901
20:41:44.760	3.41	1.874
20:41:44.793	3.41	1.881
20:41:44.827	3.41	1.879
20:41:44.860	3.41	1.848
20:41:44.893	3.41	1.825
20:41:44.927	3.41	1.823
20:41:44.960	3.40	1.819
20:41:44.993	3.41	1.826
20:41:45.027	3.40	1.851
20:41:45.060	3.41	2.156
20:41:45.093	3.41	2.574
20:41:45.127	3.40	2.708
20:41:45.160	3.40	2.585
20:41:45.193	3.40	2.391
20:41:45.227	3.41	2.230
20:41:45.260	3.40	2.109
20:41:45.293	3.40	2.009
20:41:45.327	3.40	1.927
20:41:45.360	3.40	1.893
20:41:45.393	3.40	1.881
20:41:45.427	3.40	1.870
20:41:45.460	3.40	1.861
20:41:45.493	3.40	1.822
20:41:45.527	3.40	1.808
20:41:45.560	3.40	1.813
20:41:45.593	3.40	1.828
20:41:45.627	3.40	1.854
20:41:45.660	3.40	1.891
20:41:45.693	3.39	1.925
20:41:45.727	3.40	2.003
20:41:45.760	3.39	2.554
20:41:45.793	3.40	2.913
20:41:45.827	3.40	2.890
20:41:45.860	3.39	2.657
20:41:45.893	3.39	2.396
20:41:45.927	3.39	2.212
20:41:45.960	3.39	2.087
20:41:45.993	3.40	2.046
20:41:46.027	3.39	1.910
20:41:46.060	3.39	1.858
20:41:46.093	3.39	1.845
20:41:46.127	3.39	1.828
20:41:46.160	3.39	1.809
20:41:46.193	3.39	1.778
20:41:46.227	3.39	1.763
20:41:46.260	3.39	1.774
20:41:46.293	3.39	1.789
20:41:46.327	3.39	1.821
20:41:46.360	3.39	1.864
20:41:46.393	3.39	1.902
20:41:46.427	3.39	2.114
20:41:46.460	3.39	2.705
20:41:46.493	3.39	2.925
20:41:46.527	3.39	2.882
20:41:46.560	3.39	2.595
20:41:46.593	3.39	2.352
20:41:46.627	3.39	2.165
20:41:46.660	3.39	2.038
20:41:46.693	3.39	1.922
20:41:46.727	3.39	1.845
20:41:46.760	3.39	1.819
20:41:46.793	3.39	1.814
20:41:46.827	3.39	1.794
20:41:46.860	3.39	1.767
20:41:46.893	3.39	1.747
20:41:46.927	3.39	1.748
20:41:46.960	3.39	1.768
20:41:46.993	3.39	1.798
20:41:47.027	3.39	1.836
20:41:47.060	3.39	1.892
20:41:47.093	3.39	2.477
20:41:47.127	3.39	2.784
20:41:47.160	3.39	2.747
20:41:47.193	3.39	2.532
20:41:47.227	3.39	2.307
20:41:47.260	3.39	2.145
20:41:47.293	3.39	2.028
20:41:47.327	3.39	1.911
20:41:47.360	3.39	1.860
20:41:47.393	3.39	1.871
20:41:47.427	3.39	1.875
20:41:47.460	3.39	1.857
20:41:47.493	3.38	1.844
20:41:47.527	3.39	1.828
20:41:47.560	3.39	1.822
20:41:47.593	3.38	1.822
20:41:47.627	3.39	1.807
20:41:47.660	3.38	1.810
20:41:47.693	3.39	2.195
20:41:47.727	3.39	2.655
20:41:47.760	3.39	2.753
20:41:47.793	3.38	2.620
20:41:47.827	3.38	2.436
20:41:47.860	3.38	2.292
20:41:47.893	3.39	2.187
20:41:47.927	3.38	2.071
20:41:47.960	3.38	1.966
20:41:47.993	3.39	1.919
20:41:48.027	3.38	1.898
20:41:48.060	3.38	1.858
20:41:48.093	3.39	1.811
20:41:48.127	3.39	1.796
20:41:48.160	3.38	1.743
20:41:48.193	3.38	1.732
20:41:48.227	3.39	1.757
20:41:48.260	3.39	1.809
20:41:48.293	3.38	2.086
20:41:48.327	3.38	2.667
20:41:48.360	3.38	2.907
20:41:48.393	3.38	2.867
20:41:48.427	3.38	2.675
20:41:48.460	3.38	2.442
20:41:48.493	3.38	2.226
20:41:48.527	3.38	2.049
20:41:48.560	3.38	1.886
20:41:48.593	3.37	1.786
20:41:48.627	3.37	1.756
20:41:48.660	3.38	1.754
20:41:48.693	3.38	1.753
20:41:48.727	3.38	1.748
20:41:48.760	3.38	1.742
20:41:48.793	3.37	1.745
20:41:48.827	3.38	1.754
20:41:48.860	3.38	1.765
20:41:48.893	3.38	2.024
20:41:48.927	3.37	2.500
20:41:48.960	3.38	2.706
20:41:48.993	3.38	2.639
20:41:49.027	3.38	2.463
20:41:49.060	3.38	2.293
20:41:49.093	3.37	2.161
20:41:49.127	3.37	2.051
20:41:49.160	3.37	1.951
20:41:49.193	3.37	1.935
20:41:49.227	3.37	1.903
20:41:49.260	3.37	1.870
20:41:49.293	3.38	1.815
20:41:49.327	3.37	1.768
20:41:49.360	3.37	1.735
20:41:49.393	3.37	1.727
20:41:49.427	3.38	1.747
20:41:49.460	3.38	1.785
20:41:49.493	3.37	2.147
20:41:49.527	3.37	2.660
20:41:49.560	3.37	2.886
20:41:49.593	3.37	2.823
20:41:49.627	3.37	2.629
20:41:49.660	3.37	2.431
20:41:49.693	3.37	2.259
20:41:49.727	3.37	2.204
20:41:49.760	3.37	1.996
20:41:49.793	3.37	1.857
20:41:49.827	3.37	1.791
20:41:49.860	3.37	1.751
20:41:49.893	3.37	1.698
20:41:49.927	3.38	1.651
20:41:49.960	3.37	1.633
20:41:49.993	3.37	1.639
20:41:50.027	3.38	1.674
